# xPDFsuite Configuration #
[PDF]
wavelength = 0.1432
dataformat = twotheta
inputfile = 1_1Pt_CeO2_cycle-00009.chi
backgroundfile = background-00000.chi
mode = xray
bgscale = 1.07
composition = CeO2
outputtype = gr
qmaxinst = 28.9
qmin = 0.4
qmax = 27.9
rmax = 50.0
rmin = 0.0
rstep = 0.01
rpoly = 1.9824

[Misc]
inputdir = G:/SankarDec16/1Pt_2/Chi
savedir = D:/DATA/APS_CeO2/1Pt
backgroundfilefull = G:/SankarDec16/1Pt_2/Chi/background-00000.chi

#### start data
#S 1
#L r($\AA$)  G($\AA^{-2}$)
0 0
0.01 -0.00392131
0.02 -0.00754134
0.03 -0.0105502
0.04 -0.012715
0.05 -0.0139073
0.06 -0.0139209
0.07 -0.0128971
0.08 -0.0107738
0.09 -0.00781938
0.1 -0.00422188
0.11 -0.000266879
0.12 0.00373897
0.13 0.00744615
0.14 0.0106159
0.15 0.0129496
0.16 0.0142781
0.17 0.0145379
0.18 0.0135941
0.19 0.01166
0.2 0.00875406
0.21 0.00519343
0.22 0.00121493
0.23 -0.00285805
0.24 -0.00673716
0.25 -0.0100441
0.26 -0.0126127
0.27 -0.0141718
0.28 -0.0146232
0.29 -0.0139709
0.3 -0.0121576
0.31 -0.00945575
0.32 -0.00596254
0.33 -0.0020262
0.34 0.0020812
0.35 0.00601635
0.36 0.00952513
0.37 0.0122215
0.38 0.014021
0.39 0.0146949
0.4 0.0142213
0.41 0.0126716
0.42 0.0100699
0.43 0.00673276
0.44 0.00283135
0.45 -0.00127404
0.46 -0.00529084
0.47 -0.00887417
0.48 -0.0118185
0.49 -0.0137511
0.5 -0.0146741
0.51 -0.0144142
0.52 -0.013028
0.53 -0.010651
0.54 -0.00738816
0.55 -0.00358376
0.56 0.000525525
0.57 0.00458622
0.58 0.00830075
0.59 0.0113408
0.6 0.0135609
0.61 0.0146211
0.62 0.0146113
0.63 0.0134231
0.64 0.0111891
0.65 0.00810247
0.66 0.00434417
0.67 0.000268379
0.68 -0.0038347
0.69 -0.00763679
0.7 -0.010851
0.71 -0.0131824
0.72 -0.0145538
0.73 -0.0146758
0.74 -0.0137214
0.75 -0.0116525
0.76 -0.00867112
0.77 -0.00501744
0.78 -0.000938678
0.79 0.00321993
0.8 0.00713097
0.81 0.0105086
0.82 0.0130923
0.83 0.0146366
0.84 0.0151359
0.85 0.0143665
0.86 0.0125736
0.87 0.00978979
0.88 0.00627207
0.89 0.00229139
0.9 -0.00185876
0.91 -0.00586498
0.92 -0.00939109
0.93 -0.0122153
0.94 -0.0141283
0.95 -0.0149601
0.96 -0.014781
0.97 -0.0134686
0.98 -0.0113237
0.99 -0.00846426
1 -0.00519198
1.01 -0.00179231
1.02 0.0014015
1.03 0.00414505
1.04 0.00611214
1.05 0.0071848
1.06 0.00723884
1.07 0.00622498
1.08 0.00432258
1.09 0.00157863
1.1 -0.00162608
1.11 -0.00502112
1.12 -0.00821202
1.13 -0.0108627
1.14 -0.0125056
1.15 -0.0129721
1.16 -0.0118364
1.17 -0.00908787
1.18 -0.00463747
1.19 0.00149425
1.2 0.00897015
1.21 0.0176749
1.22 0.0270278
1.23 0.0366235
1.24 0.0458895
1.25 0.0543406
1.26 0.061286
1.27 0.0664627
1.28 0.0691882
1.29 0.0693666
1.3 0.0667436
1.31 0.0611499
1.32 0.0529452
1.33 0.041909
1.34 0.0287872
1.35 0.0137944
1.36 -0.00246318
1.37 -0.0194164
1.38 -0.036459
1.39 -0.0530174
1.4 -0.0684155
1.41 -0.0822192
1.42 -0.0939553
1.43 -0.10314
1.44 -0.109784
1.45 -0.113244
1.46 -0.113927
1.47 -0.11158
1.48 -0.106419
1.49 -0.0987347
1.5 -0.0885611
1.51 -0.0765219
1.52 -0.062752
1.53 -0.047826
1.54 -0.0321143
1.55 -0.0160753
1.56 -0.000137077
1.57 0.0151792
1.58 0.0295488
1.59 0.042485
1.6 0.0536347
1.61 0.0627716
1.62 0.0693696
1.63 0.0735587
1.64 0.0748628
1.65 0.0734912
1.66 0.0694084
1.67 0.0626658
1.68 0.0537377
1.69 0.0426216
1.7 0.0300525
1.71 0.0163652
1.72 0.00217247
1.73 -0.0119848
1.74 -0.0254515
1.75 -0.0378055
1.76 -0.048378
1.77 -0.0569212
1.78 -0.0631149
1.79 -0.0667102
1.8 -0.06797
1.81 -0.066672
1.82 -0.0635038
1.83 -0.058722
1.84 -0.0529748
1.85 -0.0468856
1.86 -0.041192
1.87 -0.0364786
1.88 -0.0335451
1.89 -0.0327792
1.9 -0.0346108
1.91 -0.0393882
1.92 -0.0468469
1.93 -0.0572552
1.94 -0.0698041
1.95 -0.0841473
1.96 -0.0994552
1.97 -0.114916
1.98 -0.129499
1.99 -0.142436
2 -0.152543
2.01 -0.159236
2.02 -0.161795
2.03 -0.159521
2.04 -0.152648
2.05 -0.140312
2.06 -0.123485
2.07 -0.10209
2.08 -0.0768363
2.09 -0.0484941
2.1 -0.0175782
2.11 0.0148582
2.12 0.0482511
2.13 0.0818566
2.14 0.115208
2.15 0.147926
2.16 0.179942
2.17 0.21118
2.18 0.241962
2.19 0.272585
2.2 0.303515
2.21 0.335157
2.22 0.368063
2.23 0.402357
2.24 0.438375
2.25 0.475868
2.26 0.514536
2.27 0.553718
2.28 0.592539
2.29 0.629585
2.3 0.663741
2.31 0.693221
2.32 0.716445
2.33 0.732265
2.34 0.738271
2.35 0.734645
2.36 0.719201
2.37 0.692573
2.38 0.654545
2.39 0.605295
2.4 0.546901
2.41 0.479532
2.42 0.406409
2.43 0.329168
2.44 0.250533
2.45 0.172844
2.46 0.098975
2.47 0.0305296
2.48 -0.0297359
2.49 -0.0810277
2.5 -0.122227
2.51 -0.152502
2.52 -0.173126
2.53 -0.183292
2.54 -0.185773
2.55 -0.181468
2.56 -0.172669
2.57 -0.161509
2.58 -0.150178
2.59 -0.140607
2.6 -0.134914
2.61 -0.134207
2.62 -0.139498
2.63 -0.151512
2.64 -0.169486
2.65 -0.193756
2.66 -0.222351
2.67 -0.254281
2.68 -0.287655
2.69 -0.320773
2.7 -0.35158
2.71 -0.378852
2.72 -0.400693
2.73 -0.416599
2.74 -0.425967
2.75 -0.428541
2.76 -0.42546
2.77 -0.416862
2.78 -0.404898
2.79 -0.390861
2.8 -0.376745
2.81 -0.364215
2.82 -0.355383
2.83 -0.35112
2.84 -0.353172
2.85 -0.361598
2.86 -0.376618
2.87 -0.397987
2.88 -0.424192
2.89 -0.454438
2.9 -0.486389
2.91 -0.51826
2.92 -0.547847
2.93 -0.573457
2.94 -0.592682
2.95 -0.605089
2.96 -0.60885
2.97 -0.604429
2.98 -0.591942
2.99 -0.572076
3 -0.546889
3.01 -0.517651
3.02 -0.487151
3.03 -0.457605
3.04 -0.431535
3.05 -0.410772
3.06 -0.397986
3.07 -0.393381
3.08 -0.398822
3.09 -0.41348
3.1 -0.436962
3.11 -0.468204
3.12 -0.504761
3.13 -0.544933
3.14 -0.58567
3.15 -0.624453
3.16 -0.658636
3.17 -0.686425
3.18 -0.705171
3.19 -0.715058
3.2 -0.714547
3.21 -0.705016
3.22 -0.687417
3.23 -0.663539
3.24 -0.636244
3.25 -0.60823
3.26 -0.582621
3.27 -0.562579
3.28 -0.550886
3.29 -0.549183
3.3 -0.560316
3.31 -0.583232
3.32 -0.619236
3.33 -0.665934
3.34 -0.721559
3.35 -0.78327
3.36 -0.847315
3.37 -0.909689
3.38 -0.966735
3.39 -1.01431
3.4 -1.04915
3.41 -1.06957
3.42 -1.07221
3.43 -1.05904
3.44 -1.02881
3.45 -0.985084
3.46 -0.930525
3.47 -0.869152
3.48 -0.805852
3.49 -0.74599
3.5 -0.693934
3.51 -0.654744
3.52 -0.631963
3.53 -0.626999
3.54 -0.64283
3.55 -0.675869
3.56 -0.725513
3.57 -0.785535
3.58 -0.850166
3.59 -0.910884
3.6 -0.96005
3.61 -0.984664
3.62 -0.978529
3.63 -0.929623
3.64 -0.829907
3.65 -0.67549
3.66 -0.454706
3.67 -0.174127
3.68 0.173734
3.69 0.579507
3.7 1.0383
3.71 1.54206
3.72 2.07553
3.73 2.62784
3.74 3.18089
3.75 3.71867
3.76 4.22362
3.77 4.68263
3.78 5.07352
3.79 5.39308
3.8 5.62078
3.81 5.75675
3.82 5.79527
3.83 5.73133
3.84 5.578
3.85 5.327
3.86 5.00131
3.87 4.60542
3.88 4.1555
3.89 3.66759
3.9 3.15502
3.91 2.63559
3.92 2.12393
3.93 1.6333
3.94 1.17505
3.95 0.761123
3.96 0.39321
3.97 0.0841433
3.98 -0.172714
3.99 -0.373272
4 -0.521852
4.01 -0.625167
4.02 -0.684991
4.03 -0.713762
4.04 -0.715329
4.05 -0.699928
4.06 -0.674075
4.07 -0.644594
4.08 -0.616843
4.09 -0.596035
4.1 -0.584121
4.11 -0.583469
4.12 -0.594198
4.13 -0.615034
4.14 -0.645136
4.15 -0.680934
4.16 -0.720083
4.17 -0.759028
4.18 -0.794833
4.19 -0.824174
4.2 -0.845534
4.21 -0.855421
4.22 -0.85424
4.23 -0.840429
4.24 -0.814305
4.25 -0.777004
4.26 -0.728439
4.27 -0.671422
4.28 -0.606514
4.29 -0.536129
4.3 -0.461715
4.31 -0.384775
4.32 -0.306752
4.33 -0.228677
4.34 -0.151355
4.35 -0.0753988
4.36 -0.0011774
4.37 0.071186
4.38 0.141293
4.39 0.209289
4.4 0.274648
4.41 0.337214
4.42 0.396448
4.43 0.451418
4.44 0.501788
4.45 0.545625
4.46 0.582757
4.47 0.611477
4.48 0.630801
4.49 0.640323
4.5 0.638066
4.51 0.625163
4.52 0.600075
4.53 0.564076
4.54 0.517564
4.55 0.461163
4.56 0.397092
4.57 0.325863
4.58 0.250254
4.59 0.171714
4.6 0.0923413
4.61 0.0138228
4.62 -0.0618705
4.63 -0.133793
4.64 -0.200288
4.65 -0.261007
4.66 -0.315445
4.67 -0.363202
4.68 -0.405154
4.69 -0.440832
4.7 -0.471755
4.71 -0.498241
4.72 -0.521245
4.73 -0.541651
4.74 -0.559958
4.75 -0.576988
4.76 -0.593014
4.77 -0.608377
4.78 -0.623146
4.79 -0.637226
4.8 -0.650536
4.81 -0.662669
4.82 -0.673527
4.83 -0.682762
4.84 -0.690217
4.85 -0.695915
4.86 -0.699705
4.87 -0.702018
4.88 -0.702984
4.89 -0.703153
4.9 -0.702977
4.91 -0.703034
4.92 -0.703769
4.93 -0.705827
4.94 -0.709385
4.95 -0.714797
4.96 -0.722107
4.97 -0.731133
4.98 -0.741787
4.99 -0.753476
5 -0.765807
5.01 -0.77814
5.02 -0.789935
5.03 -0.800573
5.04 -0.80978
5.05 -0.816976
5.06 -0.822309
5.07 -0.825664
5.08 -0.827315
5.09 -0.827681
5.1 -0.827144
5.11 -0.826308
5.12 -0.82564
5.13 -0.825512
5.14 -0.826105
5.15 -0.827372
5.16 -0.828893
5.17 -0.829867
5.18 -0.829261
5.19 -0.825513
5.2 -0.816782
5.21 -0.80153
5.22 -0.776597
5.23 -0.741312
5.24 -0.692308
5.25 -0.629033
5.26 -0.550191
5.27 -0.454417
5.28 -0.343616
5.29 -0.216312
5.3 -0.0765388
5.31 0.074296
5.32 0.232429
5.33 0.393909
5.34 0.554053
5.35 0.708511
5.36 0.851406
5.37 0.978685
5.38 1.08593
5.39 1.16783
5.4 1.22422
5.41 1.24832
5.42 1.24344
5.43 1.20707
5.44 1.14092
5.45 1.04851
5.46 0.93027
5.47 0.793451
5.48 0.640475
5.49 0.477922
5.5 0.310587
5.51 0.144032
5.52 -0.0174027
5.53 -0.167882
5.54 -0.305261
5.55 -0.425645
5.56 -0.527246
5.57 -0.610139
5.58 -0.672005
5.59 -0.716418
5.6 -0.742697
5.61 -0.754498
5.62 -0.753971
5.63 -0.743542
5.64 -0.726726
5.65 -0.705365
5.66 -0.682308
5.67 -0.659141
5.68 -0.63722
5.69 -0.617098
5.7 -0.599128
5.71 -0.582638
5.72 -0.566951
5.73 -0.550814
5.74 -0.532988
5.75 -0.511898
5.76 -0.486796
5.77 -0.455929
5.78 -0.419517
5.79 -0.376971
5.8 -0.328798
5.81 -0.276089
5.82 -0.21984
5.83 -0.162194
5.84 -0.105132
5.85 -0.0509484
5.86 -0.00182707
5.87 0.0395427
5.88 0.0722299
5.89 0.0930046
5.9 0.10241
5.91 0.0989412
5.92 0.0828155
5.93 0.0552179
5.94 0.0160056
5.95 -0.0317919
5.96 -0.0873103
5.97 -0.147726
5.98 -0.211026
5.99 -0.274936
6 -0.337589
6.01 -0.396844
6.02 -0.451851
6.03 -0.501396
6.04 -0.545109
6.05 -0.583324
6.06 -0.615875
6.07 -0.644263
6.08 -0.669023
6.09 -0.691655
6.1 -0.713246
6.11 -0.734969
6.12 -0.757631
6.13 -0.782109
6.14 -0.808458
6.15 -0.836784
6.16 -0.866636
6.17 -0.897301
6.18 -0.92781
6.19 -0.957153
6.2 -0.983992
6.21 -1.0074
6.22 -1.02649
6.23 -1.04032
6.24 -1.04914
6.25 -1.05217
6.26 -1.05063
6.27 -1.04487
6.28 -1.03606
6.29 -1.02544
6.3 -1.0142
6.31 -1.00347
6.32 -0.994187
6.33 -0.986654
6.34 -0.980743
6.35 -0.9756
6.36 -0.969718
6.37 -0.960312
6.38 -0.944763
6.39 -0.918904
6.4 -0.878285
6.41 -0.81957
6.42 -0.735233
6.43 -0.624523
6.44 -0.479911
6.45 -0.30074
6.46 -0.0846405
6.47 0.171204
6.48 0.461943
6.49 0.790766
6.5 1.14853
6.51 1.53217
6.52 1.93359
6.53 2.3442
6.54 2.75429
6.55 3.15424
6.56 3.53176
6.57 3.87768
6.58 4.18236
6.59 4.43358
6.6 4.63012
6.61 4.75612
6.62 4.81708
6.63 4.80571
6.64 4.72327
6.65 4.57582
6.66 4.36037
6.67 4.09215
6.68 3.77266
6.69 3.41551
6.7 3.02978
6.71 2.62584
6.72 2.21528
6.73 1.80866
6.74 1.41495
6.75 1.04341
6.76 0.701412
6.77 0.392356
6.78 0.124805
6.79 -0.104764
6.8 -0.290852
6.81 -0.437761
6.82 -0.547181
6.83 -0.620822
6.84 -0.666254
6.85 -0.68406
6.86 -0.682836
6.87 -0.665731
6.88 -0.637901
6.89 -0.603659
6.9 -0.566196
6.91 -0.528592
6.92 -0.492958
6.93 -0.460536
6.94 -0.432003
6.95 -0.407733
6.96 -0.387025
6.97 -0.369861
6.98 -0.355102
6.99 -0.342316
7 -0.330923
7.01 -0.320583
7.02 -0.311424
7.03 -0.303575
7.04 -0.297825
7.05 -0.294888
7.06 -0.295732
7.07 -0.301759
7.08 -0.313346
7.09 -0.332407
7.1 -0.358567
7.11 -0.392676
7.12 -0.434514
7.13 -0.483153
7.14 -0.53833
7.15 -0.597842
7.16 -0.660454
7.17 -0.723882
7.18 -0.786174
7.19 -0.844926
7.2 -0.898741
7.21 -0.944876
7.22 -0.983023
7.23 -1.01169
7.24 -1.03059
7.25 -1.04042
7.26 -1.04083
7.27 -1.03421
7.28 -1.02127
7.29 -1.00441
7.3 -0.985424
7.31 -0.966412
7.32 -0.94902
7.33 -0.935224
7.34 -0.925628
7.35 -0.921109
7.36 -0.921573
7.37 -0.926154
7.38 -0.933936
7.39 -0.942754
7.4 -0.950369
7.41 -0.954128
7.42 -0.951367
7.43 -0.938555
7.44 -0.914348
7.45 -0.874214
7.46 -0.818402
7.47 -0.744447
7.48 -0.651969
7.49 -0.542241
7.5 -0.414262
7.51 -0.272263
7.52 -0.117119
7.53 0.0468471
7.54 0.216243
7.55 0.386839
7.56 0.55467
7.57 0.714512
7.58 0.863364
7.59 0.996741
7.6 1.11129
7.61 1.20569
7.62 1.2751
7.63 1.32173
7.64 1.34215
7.65 1.33853
7.66 1.31156
7.67 1.26162
7.68 1.19307
7.69 1.10566
7.7 1.00468
7.71 0.891952
7.72 0.770951
7.73 0.644933
7.74 0.516666
7.75 0.389139
7.76 0.265144
7.77 0.146873
7.78 0.0363046
7.79 -0.0641398
7.8 -0.154218
7.81 -0.230907
7.82 -0.295096
7.83 -0.345243
7.84 -0.381171
7.85 -0.40371
7.86 -0.41147
7.87 -0.407033
7.88 -0.389765
7.89 -0.361853
7.9 -0.324601
7.91 -0.279441
7.92 -0.229042
7.93 -0.175022
7.94 -0.120213
7.95 -0.0669087
7.96 -0.017728
7.97 0.0254544
7.98 0.0593958
7.99 0.0835698
8 0.0951643
8.01 0.093978
8.02 0.0793913
8.03 0.0506024
8.04 0.0096284
8.05 -0.0443277
8.06 -0.107995
8.07 -0.180202
8.08 -0.258364
8.09 -0.339858
8.1 -0.422148
8.11 -0.502714
8.12 -0.578919
8.13 -0.648975
8.14 -0.71136
8.15 -0.764422
8.16 -0.808697
8.17 -0.842801
8.18 -0.868657
8.19 -0.88667
8.2 -0.898475
8.21 -0.905973
8.22 -0.910655
8.23 -0.914554
8.24 -0.919123
8.25 -0.925476
8.26 -0.934178
8.27 -0.945326
8.28 -0.957994
8.29 -0.970794
8.3 -0.981536
8.31 -0.98735
8.32 -0.984699
8.33 -0.970796
8.34 -0.939827
8.35 -0.89058
8.36 -0.817195
8.37 -0.718391
8.38 -0.592035
8.39 -0.435194
8.4 -0.251118
8.41 -0.0366277
8.42 0.20192
8.43 0.462855
8.44 0.740825
8.45 1.02959
8.46 1.32302
8.47 1.61362
8.48 1.89328
8.49 2.15492
8.5 2.39168
8.51 2.59467
8.52 2.76231
8.53 2.88355
8.54 2.96101
8.55 2.98944
8.56 2.96864
8.57 2.90246
8.58 2.78767
8.59 2.6345
8.6 2.44313
8.61 2.22236
8.62 1.97811
8.63 1.71671
8.64 1.44646
8.65 1.1737
8.66 0.905305
8.67 0.647346
8.68 0.405317
8.69 0.182047
8.7 -0.0163732
8.71 -0.191379
8.72 -0.338981
8.73 -0.461142
8.74 -0.558623
8.75 -0.6319
8.76 -0.685795
8.77 -0.720375
8.78 -0.741314
8.79 -0.750769
8.8 -0.752349
8.81 -0.749302
8.82 -0.744168
8.83 -0.739469
8.84 -0.737191
8.85 -0.738595
8.86 -0.744502
8.87 -0.755609
8.88 -0.771292
8.89 -0.791809
8.9 -0.815806
8.91 -0.842635
8.92 -0.871136
8.93 -0.900224
8.94 -0.92879
8.95 -0.956025
8.96 -0.980981
8.97 -1.00324
8.98 -1.02248
8.99 -1.03839
9 -1.05142
9.01 -1.06142
9.02 -1.0692
9.03 -1.07506
9.04 -1.07962
9.05 -1.08341
9.06 -1.08683
9.07 -1.09024
9.08 -1.09379
9.09 -1.09742
9.1 -1.10092
9.11 -1.10377
9.12 -1.10546
9.13 -1.10489
9.14 -1.10144
9.15 -1.09389
9.16 -1.08118
9.17 -1.06276
9.18 -1.03689
9.19 -1.00396
9.2 -0.96265
9.21 -0.913409
9.22 -0.856393
9.23 -0.791736
9.24 -0.721095
9.25 -0.644889
9.26 -0.565384
9.27 -0.48408
9.28 -0.403145
9.29 -0.324446
9.3 -0.250702
9.31 -0.183172
9.32 -0.124557
9.33 -0.0759183
9.34 -0.038461
9.35 -0.0138336
9.36 -0.000986706
9.37 -0.00173453
9.38 -0.0137742
9.39 -0.0369439
9.4 -0.0696328
9.41 -0.109647
9.42 -0.155652
9.43 -0.204736
9.44 -0.25499
9.45 -0.30407
9.46 -0.350121
9.47 -0.391026
9.48 -0.426108
9.49 -0.453362
9.5 -0.473288
9.51 -0.485319
9.52 -0.48994
9.53 -0.488351
9.54 -0.48104
9.55 -0.470151
9.56 -0.456862
9.57 -0.443052
9.58 -0.430202
9.59 -0.419992
9.6 -0.413241
9.61 -0.411536
9.62 -0.414815
9.63 -0.423647
9.64 -0.437862
9.65 -0.456708
9.66 -0.479985
9.67 -0.5062
9.68 -0.534659
9.69 -0.564105
9.7 -0.593622
9.71 -0.622268
9.72 -0.649556
9.73 -0.674831
9.74 -0.698218
9.75 -0.719697
9.76 -0.739623
9.77 -0.758508
9.78 -0.776781
9.79 -0.794941
9.8 -0.813236
9.81 -0.831607
9.82 -0.849641
9.83 -0.866267
9.84 -0.880293
9.85 -0.889004
9.86 -0.890432
9.87 -0.88103
9.88 -0.857008
9.89 -0.815896
9.9 -0.750942
9.91 -0.661879
9.92 -0.542217
9.93 -0.39106
9.94 -0.20649
9.95 0.014783
9.96 0.268573
9.97 0.55854
9.98 0.877355
9.99 1.22312
10 1.5899
10.01 1.97049
10.02 2.35819
10.03 2.74414
10.04 3.11924
10.05 3.47498
10.06 3.80335
10.07 4.09354
10.08 4.34323
10.09 4.53912
10.1 4.68324
10.11 4.76887
10.12 4.79456
10.13 4.76435
10.14 4.67276
10.15 4.53163
10.16 4.33988
10.17 4.10729
10.18 3.84041
10.19 3.54571
10.2 3.23361
10.21 2.91038
10.22 2.58527
10.23 2.26517
10.24 1.9571
10.25 1.66526
10.26 1.39693
10.27 1.15188
10.28 0.935024
10.29 0.745315
10.3 0.582458
10.31 0.446753
10.32 0.333243
10.33 0.242407
10.34 0.168188
10.35 0.108417
10.36 0.0592442
10.37 0.016906
10.38 -0.0212593
10.39 -0.058474
10.4 -0.0969715
10.41 -0.138529
10.42 -0.18429
10.43 -0.235315
10.44 -0.291194
10.45 -0.352416
10.46 -0.417668
10.47 -0.486313
10.48 -0.557077
10.49 -0.628643
10.5 -0.699551
10.51 -0.768588
10.52 -0.834191
10.53 -0.895339
10.54 -0.951069
10.55 -1.00005
10.56 -1.04242
10.57 -1.07655
10.58 -1.10318
10.59 -1.12166
10.6 -1.13202
10.61 -1.13499
10.62 -1.12991
10.63 -1.11834
10.64 -1.10005
10.65 -1.07616
10.66 -1.04737
10.67 -1.01425
10.68 -0.978057
10.69 -0.939299
10.7 -0.899198
10.71 -0.858525
10.72 -0.818237
10.73 -0.779058
10.74 -0.742031
10.75 -0.70752
10.76 -0.676455
10.77 -0.649138
10.78 -0.625926
10.79 -0.607406
10.8 -0.593205
10.81 -0.584085
10.82 -0.579389
10.83 -0.579319
10.84 -0.583689
10.85 -0.592008
10.86 -0.604544
10.87 -0.620449
10.88 -0.639854
10.89 -0.662232
10.9 -0.687309
10.91 -0.714926
10.92 -0.744508
10.93 -0.775989
10.94 -0.808755
10.95 -0.842488
10.96 -0.876678
10.97 -0.910829
10.98 -0.944289
10.99 -0.976583
11 -1.00694
11.01 -1.03484
11.02 -1.05978
11.03 -1.081
11.04 -1.09857
11.05 -1.11164
11.06 -1.1207
11.07 -1.12557
11.08 -1.12662
11.09 -1.12454
11.1 -1.11967
11.11 -1.11318
11.12 -1.10579
11.13 -1.0985
11.14 -1.0921
11.15 -1.08746
11.16 -1.08483
11.17 -1.08472
11.18 -1.08664
11.19 -1.09013
11.2 -1.09405
11.21 -1.09699
11.22 -1.09661
11.23 -1.09112
11.24 -1.07724
11.25 -1.05254
11.26 -1.01443
11.27 -0.958924
11.28 -0.885732
11.29 -0.789802
11.3 -0.672471
11.31 -0.531621
11.32 -0.367357
11.33 -0.182184
11.34 0.0246139
11.35 0.247229
11.36 0.483746
11.37 0.728523
11.38 0.976744
11.39 1.22235
11.4 1.4603
11.41 1.68288
11.42 1.88629
11.43 2.06425
11.44 2.2118
11.45 2.32771
11.46 2.4044
11.47 2.44586
11.48 2.44735
11.49 2.41216
11.5 2.34214
11.51 2.23807
11.52 2.10724
11.53 1.95032
11.54 1.77548
11.55 1.58656
11.56 1.38927
11.57 1.1888
11.58 0.990173
11.59 0.797182
11.6 0.614163
11.61 0.443461
11.62 0.286895
11.63 0.146797
11.64 0.0216832
11.65 -0.0864157
11.66 -0.180499
11.67 -0.261013
11.68 -0.329865
11.69 -0.38965
11.7 -0.441435
11.71 -0.488258
11.72 -0.531365
11.73 -0.572601
11.74 -0.613082
11.75 -0.653656
11.76 -0.694675
11.77 -0.736198
11.78 -0.77777
11.79 -0.818699
11.8 -0.857907
11.81 -0.894443
11.82 -0.926407
11.83 -0.953112
11.84 -0.972513
11.85 -0.983683
11.86 -0.985557
11.87 -0.97633
11.88 -0.956503
11.89 -0.923734
11.9 -0.879217
11.91 -0.822073
11.92 -0.752416
11.93 -0.671472
11.94 -0.578367
11.95 -0.475689
11.96 -0.363459
11.97 -0.243743
11.98 -0.118107
11.99 0.0117681
12 0.143509
12.01 0.274931
12.02 0.403677
12.03 0.52722
12.04 0.64285
12.05 0.748951
12.06 0.841523
12.07 0.920478
12.08 0.982348
12.09 1.02668
12.1 1.05267
12.11 1.05847
12.12 1.04644
12.13 1.01446
12.14 0.966116
12.15 0.901974
12.16 0.824328
12.17 0.7364
12.18 0.639921
12.19 0.53894
12.2 0.43595
12.21 0.334098
12.22 0.235822
12.23 0.14394
12.24 0.059393
12.25 -0.0152418
12.26 -0.0804424
12.27 -0.135507
12.28 -0.180902
12.29 -0.218196
12.3 -0.247849
12.31 -0.272626
12.32 -0.293926
12.33 -0.314073
12.34 -0.334856
12.35 -0.358226
12.36 -0.385123
12.37 -0.417085
12.38 -0.453871
