# xPDFsuite Configuration #
[PDF]
wavelength = 0.1432
dataformat = twotheta
inputfile = 1_1Pt_CeO2_cycle-00006.chi
backgroundfile = background-00000.chi
mode = xray
bgscale = 1.07
composition = CeO2
outputtype = gr
qmaxinst = 28.9
qmin = 0.4
qmax = 27.9
rmax = 50.0
rmin = 0.0
rstep = 0.01
rpoly = 1.9824

[Misc]
inputdir = G:/SankarDec16/1Pt_2/Chi
savedir = D:/DATA/APS_CeO2/1Pt
backgroundfilefull = G:/SankarDec16/1Pt_2/Chi/background-00000.chi

#### start data
#S 1
#L r($\AA$)  G($\AA^{-2}$)
0 0
0.01 -0.00577179
0.02 -0.0110984
0.03 -0.0155217
0.04 -0.0186978
0.05 -0.0204365
0.06 -0.0204331
0.07 -0.0188964
0.08 -0.0157346
0.09 -0.0113447
0.1 -0.00600477
0.11 -0.000137722
0.12 0.00580251
0.13 0.0112975
0.14 0.0159933
0.15 0.0194465
0.16 0.0214053
0.17 0.0217745
0.18 0.020352
0.19 0.017454
0.2 0.0131056
0.21 0.00777784
0.22 0.00182182
0.23 -0.00428174
0.24 -0.0101026
0.25 -0.0150768
0.26 -0.018954
0.27 -0.0213271
0.28 -0.0220456
0.29 -0.0211115
0.3 -0.0184336
0.31 -0.0144159
0.32 -0.00919731
0.33 -0.00329693
0.34 0.00288078
0.35 0.00882319
0.36 0.0141464
0.37 0.0182718
0.38 0.0210647
0.39 0.0221768
0.4 0.0215667
0.41 0.0193334
0.42 0.0155024
0.43 0.010544
0.44 0.00470497
0.45 -0.00147482
0.46 -0.00755852
0.47 -0.0130277
0.48 -0.0175661
0.49 -0.02061
0.5 -0.0221492
0.51 -0.0219129
0.52 -0.0199727
0.53 -0.0165215
0.54 -0.0117018
0.55 -0.00602758
0.56 0.000157314
0.57 0.00631881
0.58 0.0120092
0.59 0.0167298
0.6 0.0202488
0.61 0.0220455
0.62 0.0222368
0.63 0.0206437
0.64 0.017449
0.65 0.0129309
0.66 0.00734408
0.67 0.00122144
0.68 -0.00501196
0.69 -0.0108536
0.7 -0.0158671
0.71 -0.0195974
0.72 -0.0219098
0.73 -0.0223522
0.74 -0.0211639
0.75 -0.0182672
0.76 -0.013948
0.77 -0.00855648
0.78 -0.00244741
0.79 0.00385352
0.8 0.00986138
0.81 0.0151301
0.82 0.0192568
0.83 0.0218534
0.84 0.0228892
0.85 0.0220038
0.86 0.0195463
0.87 0.0155437
0.88 0.0103685
0.89 0.00442289
0.9 -0.00186102
0.91 -0.00799547
0.92 -0.0134695
0.93 -0.0179228
0.94 -0.0210167
0.95 -0.0224637
0.96 -0.0223444
0.97 -0.0204329
0.98 -0.0171706
0.99 -0.0127069
1 -0.00748973
1.01 -0.00195469
1.02 0.00339537
1.03 0.00815331
1.04 0.0118012
1.05 0.0141079
1.06 0.0148348
1.07 0.0138393
1.08 0.0113475
1.09 0.00733237
1.1 0.00235135
1.11 -0.00326128
1.12 -0.00893709
1.13 -0.0141728
1.14 -0.0183048
1.15 -0.0210093
1.16 -0.0216525
1.17 -0.0201272
1.18 -0.0162359
1.19 -0.00991593
1.2 -0.00157209
1.21 0.00875286
1.22 0.0202824
1.23 0.0325481
1.24 0.0448033
1.25 0.0563995
1.26 0.0664697
1.27 0.0746012
1.28 0.079935
1.29 0.0822873
1.3 0.0813139
1.31 0.0767785
1.32 0.0690948
1.33 0.0579839
1.34 0.0443418
1.35 0.0284213
1.36 0.0109458
1.37 -0.00741235
1.38 -0.0259599
1.39 -0.0440375
1.4 -0.0609127
1.41 -0.0761276
1.42 -0.0892091
1.43 -0.0997044
1.44 -0.107674
1.45 -0.112557
1.46 -0.114819
1.47 -0.114296
1.48 -0.111255
1.49 -0.106006
1.5 -0.0986158
1.51 -0.0896251
1.52 -0.0791186
1.53 -0.0675246
1.54 -0.0550657
1.55 -0.0419914
1.56 -0.0285787
1.57 -0.0150385
1.58 -0.00162016
1.59 0.0114284
1.6 0.0238474
1.61 0.0354189
1.62 0.0457344
1.63 0.0546857
1.64 0.0617819
1.65 0.0669151
1.66 0.0698104
1.67 0.0701851
1.68 0.0681937
1.69 0.0634019
1.7 0.0563083
1.71 0.0468753
1.72 0.0354964
1.73 0.0226196
1.74 0.00864495
1.75 -0.00576295
1.76 -0.0200364
1.77 -0.0335783
1.78 -0.0458486
1.79 -0.0562727
1.8 -0.0647077
1.81 -0.0705456
1.82 -0.0741049
1.83 -0.0752599
1.84 -0.0743624
1.85 -0.0718725
1.86 -0.0682296
1.87 -0.0641685
1.88 -0.0603388
1.89 -0.0573985
1.9 -0.0559347
1.91 -0.056543
1.92 -0.0593154
1.93 -0.0647954
1.94 -0.0725168
1.95 -0.0824201
1.96 -0.0939163
1.97 -0.106325
1.98 -0.118809
1.99 -0.130495
2 -0.140255
2.01 -0.147296
2.02 -0.150744
2.03 -0.149681
2.04 -0.144098
2.05 -0.132884
2.06 -0.116833
2.07 -0.0956821
2.08 -0.0700521
2.09 -0.0407142
2.1 -0.00817166
2.11 0.0263257
2.12 0.0620751
2.13 0.0980606
2.14 0.133562
2.15 0.167884
2.16 0.200778
2.17 0.231783
2.18 0.261228
2.19 0.289218
2.2 0.316263
2.21 0.342915
2.22 0.36983
2.23 0.397531
2.24 0.426648
2.25 0.45738
2.26 0.489836
2.27 0.523841
2.28 0.558763
2.29 0.593776
2.3 0.627717
2.31 0.659094
2.32 0.686266
2.33 0.707883
2.34 0.721451
2.35 0.726586
2.36 0.720786
2.37 0.704075
2.38 0.67573
2.39 0.635319
2.4 0.584556
2.41 0.522904
2.42 0.453537
2.43 0.377698
2.44 0.298094
2.45 0.217224
2.46 0.13795
2.47 0.0624691
2.48 -0.00623257
2.49 -0.0667197
2.5 -0.117383
2.51 -0.156799
2.52 -0.185815
2.53 -0.202984
2.54 -0.210935
2.55 -0.210192
2.56 -0.202983
2.57 -0.19155
2.58 -0.178054
2.59 -0.164928
2.6 -0.154481
2.61 -0.148368
2.62 -0.148015
2.63 -0.154636
2.64 -0.167816
2.65 -0.188388
2.66 -0.214467
2.67 -0.245313
2.68 -0.279017
2.69 -0.313723
2.7 -0.347276
2.71 -0.378013
2.72 -0.403739
2.73 -0.423488
2.74 -0.436264
2.75 -0.441367
2.76 -0.439734
2.77 -0.431047
2.78 -0.41756
2.79 -0.400429
2.8 -0.381819
2.81 -0.363676
2.82 -0.348378
2.83 -0.337307
2.84 -0.332658
2.85 -0.334985
2.86 -0.344956
2.87 -0.362818
2.88 -0.387187
2.89 -0.417785
2.9 -0.452023
2.91 -0.488229
2.92 -0.523919
2.93 -0.55702
2.94 -0.584777
2.95 -0.606135
2.96 -0.618741
2.97 -0.622495
2.98 -0.617013
2.99 -0.602449
3 -0.580736
3.01 -0.552606
3.02 -0.521147
3.03 -0.488482
3.04 -0.457458
3.05 -0.430333
3.06 -0.410169
3.07 -0.397822
3.08 -0.395721
3.09 -0.403607
3.1 -0.421585
3.11 -0.44911
3.12 -0.483819
3.13 -0.524501
3.14 -0.56775
3.15 -0.611062
3.16 -0.65139
3.17 -0.68646
3.18 -0.713122
3.19 -0.730907
3.2 -0.73762
3.21 -0.734091
3.22 -0.720763
3.23 -0.698915
3.24 -0.671414
3.25 -0.640482
3.26 -0.609734
3.27 -0.582394
3.28 -0.561762
3.29 -0.550065
3.3 -0.550782
3.31 -0.563581
3.32 -0.590559
3.33 -0.62991
3.34 -0.680436
3.35 -0.739863
3.36 -0.804382
3.37 -0.870531
3.38 -0.934037
3.39 -0.990674
3.4 -1.03657
3.41 -1.06935
3.42 -1.08492
3.43 -1.08442
3.44 -1.06568
3.45 -1.03158
3.46 -0.984127
3.47 -0.926651
3.48 -0.864081
3.49 -0.801109
3.5 -0.742762
3.51 -0.694127
3.52 -0.659383
3.53 -0.640681
3.54 -0.64172
3.55 -0.65989
3.56 -0.695524
3.57 -0.743215
3.58 -0.797948
3.59 -0.851995
3.6 -0.897775
3.61 -0.923102
3.62 -0.921186
3.63 -0.880095
3.64 -0.791231
3.65 -0.649992
3.66 -0.4441
3.67 -0.179087
3.68 0.153399
3.69 0.544894
3.7 0.991298
3.71 1.48542
3.72 2.0122
3.73 2.56166
3.74 3.11528
3.75 3.6573
3.76 4.16975
3.77 4.63893
3.78 5.04227
3.79 5.37557
3.8 5.61764
3.81 5.76771
3.82 5.81932
3.83 5.76669
3.84 5.62254
3.85 5.37777
3.86 5.05554
3.87 4.66004
3.88 4.20762
3.89 3.71472
3.9 3.19483
3.91 2.66656
3.92 2.14492
3.93 1.64392
3.94 1.17545
3.95 0.752049
3.96 0.375762
3.97 0.0600117
3.98 -0.201842
3.99 -0.405447
4 -0.555177
4.01 -0.657943
4.02 -0.715571
4.03 -0.740982
4.04 -0.738219
4.05 -0.717956
4.06 -0.687015
4.07 -0.652545
4.08 -0.620119
4.09 -0.595213
4.1 -0.579806
4.11 -0.57636
4.12 -0.584952
4.13 -0.604209
4.14 -0.633226
4.15 -0.668243
4.16 -0.706819
4.17 -0.745266
4.18 -0.780577
4.19 -0.80939
4.2 -0.830203
4.21 -0.839595
4.22 -0.838071
4.23 -0.82422
4.24 -0.798522
4.25 -0.762233
4.26 -0.715489
4.27 -0.661086
4.28 -0.599736
4.29 -0.533744
4.3 -0.464479
4.31 -0.393282
4.32 -0.321312
4.33 -0.249303
4.34 -0.177714
4.35 -0.106776
4.36 -0.0364867
4.37 0.0332679
4.38 0.102538
4.39 0.171398
4.4 0.239619
4.41 0.306831
4.42 0.372365
4.43 0.435049
4.44 0.494048
4.45 0.547046
4.46 0.593266
4.47 0.630453
4.48 0.657047
4.49 0.672252
4.5 0.673431
4.51 0.66173
4.52 0.635147
4.53 0.595171
4.54 0.542301
4.55 0.477396
4.56 0.403304
4.57 0.320929
4.58 0.233859
4.59 0.144201
4.6 0.0548058
4.61 -0.03209
4.62 -0.113662
4.63 -0.188867
4.64 -0.255388
4.65 -0.31302
4.66 -0.361269
4.67 -0.399878
4.68 -0.430421
4.69 -0.45272
4.7 -0.46928
4.71 -0.481104
4.72 -0.490044
4.73 -0.49769
4.74 -0.50554
4.75 -0.51471
4.76 -0.526316
4.77 -0.540727
4.78 -0.558161
4.79 -0.578569
4.8 -0.601203
4.81 -0.625593
4.82 -0.650573
4.83 -0.675201
4.84 -0.69838
4.85 -0.719322
4.86 -0.736862
4.87 -0.750904
4.88 -0.760644
4.89 -0.766378
4.9 -0.768236
4.91 -0.766535
4.92 -0.762232
4.93 -0.755788
4.94 -0.748369
4.95 -0.740756
4.96 -0.733852
4.97 -0.728287
4.98 -0.724887
4.99 -0.723745
5 -0.725386
5.01 -0.729611
5.02 -0.736332
5.03 -0.745361
5.04 -0.756115
5.05 -0.76839
5.06 -0.781523
5.07 -0.79516
5.08 -0.80886
5.09 -0.822305
5.1 -0.835124
5.11 -0.847153
5.12 -0.858019
5.13 -0.86752
5.14 -0.8753
5.15 -0.88075
5.16 -0.883557
5.17 -0.882369
5.18 -0.876757
5.19 -0.865189
5.2 -0.846348
5.21 -0.819311
5.22 -0.781451
5.23 -0.732902
5.24 -0.670985
5.25 -0.595817
5.26 -0.50669
5.27 -0.402885
5.28 -0.286425
5.29 -0.156517
5.3 -0.0168707
5.31 0.130918
5.32 0.283345
5.33 0.436884
5.34 0.587073
5.35 0.730316
5.36 0.861158
5.37 0.976225
5.38 1.07164
5.39 1.14271
5.4 1.18959
5.41 1.20617
5.42 1.19578
5.43 1.15623
5.44 1.08929
5.45 0.998287
5.46 0.883755
5.47 0.752397
5.48 0.60653
5.49 0.45221
5.5 0.29386
5.51 0.136607
5.52 -0.0156169
5.53 -0.157434
5.54 -0.286963
5.55 -0.400658
5.56 -0.496946
5.57 -0.575961
5.58 -0.635639
5.59 -0.679324
5.6 -0.706455
5.61 -0.720424
5.62 -0.723235
5.63 -0.717132
5.64 -0.70531
5.65 -0.689437
5.66 -0.672046
5.67 -0.654507
5.68 -0.637938
5.69 -0.622737
5.7 -0.609025
5.71 -0.596108
5.72 -0.583135
5.73 -0.568878
5.74 -0.552081
5.75 -0.531159
5.76 -0.505504
5.77 -0.473333
5.78 -0.435067
5.79 -0.390176
5.8 -0.339304
5.81 -0.283667
5.82 -0.22437
5.83 -0.16368
5.84 -0.103685
5.85 -0.0467673
5.86 0.00480841
5.87 0.0482647
5.88 0.0826618
5.89 0.104663
5.9 0.114856
5.91 0.111687
5.92 0.0953883
5.93 0.0671851
5.94 0.026916
5.95 -0.0222903
5.96 -0.0795618
5.97 -0.141986
5.98 -0.207492
5.99 -0.273733
6 -0.338764
6.01 -0.400366
6.02 -0.45762
6.03 -0.509237
6.04 -0.554783
6.05 -0.594555
6.06 -0.628304
6.07 -0.657553
6.08 -0.682774
6.09 -0.705496
6.1 -0.726813
6.11 -0.747906
6.12 -0.769655
6.13 -0.792942
6.14 -0.817912
6.15 -0.844715
6.16 -0.872963
6.17 -0.902001
6.18 -0.930917
6.19 -0.958737
6.2 -0.984166
6.21 -1.0063
6.22 -1.02425
6.23 -1.03708
6.24 -1.04503
6.25 -1.04731
6.26 -1.0451
6.27 -1.03872
6.28 -1.02933
6.29 -1.01814
6.3 -1.00632
6.31 -0.995013
6.32 -0.985152
6.33 -0.977072
6.34 -0.970675
6.35 -0.965164
6.36 -0.95907
6.37 -0.949698
6.38 -0.934454
6.39 -0.909242
6.4 -0.869649
6.41 -0.812342
6.42 -0.72984
6.43 -0.621311
6.44 -0.479217
6.45 -0.302792
6.46 -0.0895714
6.47 0.163399
6.48 0.451397
6.49 0.777807
6.5 1.13359
6.51 1.51586
6.52 1.91666
6.53 2.32742
6.54 2.7386
6.55 3.14046
6.56 3.52079
6.57 3.87025
6.58 4.17907
6.59 4.43487
6.6 4.63617
6.61 4.76687
6.62 4.8322
6.63 4.82461
6.64 4.74508
6.65 4.59954
6.66 4.38469
6.67 4.11585
6.68 3.7943
6.69 3.43382
6.7 3.04359
6.71 2.63414
6.72 2.21741
6.73 1.8042
6.74 1.40391
6.75 1.02615
6.76 0.678699
6.77 0.365231
6.78 0.0947844
6.79 -0.136148
6.8 -0.321713
6.81 -0.466302
6.82 -0.571636
6.83 -0.639506
6.84 -0.677894
6.85 -0.687567
6.86 -0.677684
6.87 -0.651808
6.88 -0.615628
6.89 -0.57388
6.9 -0.530378
6.91 -0.488378
6.92 -0.450524
6.93 -0.418104
6.94 -0.391891
6.95 -0.37233
6.96 -0.358304
6.97 -0.349779
6.98 -0.344943
6.99 -0.342985
7 -0.342709
7.01 -0.343229
7.02 -0.343974
7.03 -0.344685
7.04 -0.345483
7.05 -0.346841
7.06 -0.349463
7.07 -0.354478
7.08 -0.362585
7.09 -0.375478
7.1 -0.393445
7.11 -0.417585
7.12 -0.448257
7.13 -0.485128
7.14 -0.528561
7.15 -0.576928
7.16 -0.629669
7.17 -0.684924
7.18 -0.741136
7.19 -0.796328
7.2 -0.848962
7.21 -0.896692
7.22 -0.938696
7.23 -0.973397
7.24 -1.00007
7.25 -1.01889
7.26 -1.02905
7.27 -1.0323
7.28 -1.0288
7.29 -1.02044
7.3 -1.00862
7.31 -0.994958
7.32 -0.981081
7.33 -0.968541
7.34 -0.958259
7.35 -0.951088
7.36 -0.947225
7.37 -0.946201
7.38 -0.947397
7.39 -0.949202
7.4 -0.949787
7.41 -0.946952
7.42 -0.938397
7.43 -0.920992
7.44 -0.893471
7.45 -0.851666
7.46 -0.795636
7.47 -0.722965
7.48 -0.633083
7.49 -0.526975
7.5 -0.403435
7.51 -0.266273
7.52 -0.116061
7.53 0.0432228
7.54 0.20846
7.55 0.375715
7.56 0.541087
7.57 0.699602
7.58 0.84812
7.59 0.982174
7.6 1.09826
7.61 1.19482
7.62 1.26685
7.63 1.31627
7.64 1.3394
7.65 1.3382
7.66 1.31315
7.67 1.26448
7.68 1.19654
7.69 1.10895
7.7 1.00715
7.71 0.893041
7.72 0.770262
7.73 0.64227
7.74 0.512053
7.75 0.382797
7.76 0.257527
7.77 0.138573
7.78 0.0280238
7.79 -0.0715929
7.8 -0.160126
7.81 -0.234512
7.82 -0.295868
7.83 -0.342784
7.84 -0.375322
7.85 -0.394535
7.86 -0.399322
7.87 -0.392431
7.88 -0.373503
7.89 -0.344822
7.9 -0.307787
7.91 -0.263913
7.92 -0.215715
7.93 -0.164836
7.94 -0.113807
7.95 -0.0647583
7.96 -0.0200219
7.97 0.0187885
7.98 0.0487549
7.99 0.0695397
8 0.0786314
8.01 0.0759366
8.02 0.060937
8.03 0.0329274
8.04 -0.00624344
8.05 -0.0573333
8.06 -0.117388
8.07 -0.1854
8.08 -0.259075
8.09 -0.33606
8.1 -0.414134
8.11 -0.490984
8.12 -0.564263
8.13 -0.6323
8.14 -0.693679
8.15 -0.746845
8.16 -0.792182
8.17 -0.828345
8.18 -0.856968
8.19 -0.878304
8.2 -0.893723
8.21 -0.904877
8.22 -0.912977
8.23 -0.919868
8.24 -0.926752
8.25 -0.934643
8.26 -0.944026
8.27 -0.95493
8.28 -0.966574
8.29 -0.977564
8.3 -0.985978
8.31 -0.989103
8.32 -0.983651
8.33 -0.967053
8.34 -0.933769
8.35 -0.882722
8.36 -0.808281
8.37 -0.709224
8.38 -0.583462
8.39 -0.42809
8.4 -0.246186
8.41 -0.034528
8.42 0.200805
8.43 0.458334
8.44 0.732973
8.45 1.01871
8.46 1.30971
8.47 1.5986
8.48 1.87752
8.49 2.13942
8.5 2.37751
8.51 2.5829
8.52 2.7538
8.53 2.87916
8.54 2.96125
8.55 2.99461
8.56 2.97876
8.57 2.91727
8.58 2.8066
8.59 2.65679
8.6 2.46773
8.61 2.24813
8.62 2.00382
8.63 1.74105
8.64 1.46829
8.65 1.19183
8.66 0.918868
8.67 0.655627
8.68 0.407885
8.69 0.178746
8.7 -0.0253931
8.71 -0.20573
8.72 -0.35797
8.73 -0.483905
8.74 -0.584141
8.75 -0.658973
8.76 -0.71331
8.77 -0.747051
8.78 -0.766105
8.79 -0.772667
8.8 -0.770528
8.81 -0.763162
8.82 -0.753278
8.83 -0.743671
8.84 -0.736535
8.85 -0.733348
8.86 -0.735101
8.87 -0.742687
8.88 -0.755521
8.89 -0.774051
8.9 -0.796844
8.91 -0.8233
8.92 -0.852203
8.93 -0.882348
8.94 -0.91259
8.95 -0.941913
8.96 -0.969277
8.97 -0.994088
8.98 -1.01589
8.99 -1.03424
9 -1.04948
9.01 -1.06133
9.02 -1.07055
9.03 -1.07739
9.04 -1.08244
9.05 -1.08628
9.06 -1.08928
9.07 -1.09192
9.08 -1.09438
9.09 -1.09673
9.1 -1.09884
9.11 -1.1003
9.12 -1.10072
9.13 -1.09912
9.14 -1.09491
9.15 -1.08701
9.16 -1.07437
9.17 -1.05645
9.18 -1.03158
9.19 -1.00004
9.2 -0.960522
9.21 -0.913352
9.22 -0.858598
9.23 -0.796274
9.24 -0.727914
9.25 -0.653779
9.26 -0.576033
9.27 -0.496037
9.28 -0.415855
9.29 -0.337319
9.3 -0.263021
9.31 -0.194312
9.32 -0.133845
9.33 -0.0828032
9.34 -0.0424884
9.35 -0.0146768
9.36 0.00149496
9.37 0.00403103
9.38 -0.0049513
9.39 -0.025487
9.4 -0.0561491
9.41 -0.0948372
9.42 -0.140434
9.43 -0.189963
9.44 -0.241635
9.45 -0.292995
9.46 -0.342101
9.47 -0.386722
9.48 -0.425937
9.49 -0.457558
9.5 -0.481807
9.51 -0.497873
9.52 -0.505974
9.53 -0.507146
9.54 -0.501568
9.55 -0.4914
9.56 -0.477616
9.57 -0.46217
9.58 -0.446598
9.59 -0.432657
9.6 -0.421449
9.61 -0.414711
9.62 -0.412735
9.63 -0.416362
9.64 -0.42575
9.65 -0.440382
9.66 -0.460429
9.67 -0.484457
9.68 -0.512042
9.69 -0.54191
9.7 -0.573133
9.71 -0.604749
9.72 -0.63598
9.73 -0.666071
9.74 -0.694752
9.75 -0.721733
9.76 -0.747009
9.77 -0.770805
9.78 -0.793151
9.79 -0.81442
9.8 -0.834539
9.81 -0.853414
9.82 -0.870592
9.83 -0.884969
9.84 -0.895624
9.85 -0.899884
9.86 -0.896181
9.87 -0.881218
9.88 -0.851564
9.89 -0.805059
9.9 -0.735348
9.91 -0.642346
9.92 -0.519901
9.93 -0.367206
9.94 -0.182424
9.95 0.0376484
9.96 0.289054
9.97 0.575435
9.98 0.889834
9.99 1.23055
10 1.59199
10.01 1.96724
10.02 2.34995
10.03 2.7315
10.04 3.10309
10.05 3.45634
10.06 3.78337
10.07 4.07349
10.08 4.32421
10.09 4.52231
10.1 4.66953
10.11 4.75902
10.12 4.78907
10.13 4.76347
10.14 4.67648
10.15 4.53973
10.16 4.35188
10.17 4.12258
10.18 3.85827
10.19 3.56526
10.2 3.25409
10.21 2.9309
10.22 2.60513
10.23 2.28371
10.24 1.9738
10.25 1.67976
10.26 1.40896
10.27 1.16133
10.28 0.941867
10.29 0.749633
10.3 0.584383
10.31 0.446466
10.32 0.330917
10.33 0.238241
10.34 0.162342
10.35 0.101047
10.36 0.0504882
10.37 0.00689157
10.38 -0.0323759
10.39 -0.0705318
10.4 -0.109744
10.41 -0.151741
10.42 -0.197605
10.43 -0.248292
10.44 -0.303382
10.45 -0.363238
10.46 -0.426592
10.47 -0.492781
10.48 -0.56058
10.49 -0.628786
10.5 -0.696034
10.51 -0.761315
10.52 -0.823261
10.53 -0.881076
10.54 -0.934007
10.55 -0.981002
10.56 -1.02228
10.57 -1.05653
10.58 -1.08442
10.59 -1.1054
10.6 -1.11947
10.61 -1.12712
10.62 -1.12762
10.63 -1.12211
10.64 -1.11011
10.65 -1.09233
10.66 -1.0691
10.67 -1.04056
10.68 -1.00775
10.69 -0.970698
10.7 -0.930629
10.71 -0.888117
10.72 -0.844138
10.73 -0.799659
10.74 -0.755779
10.75 -0.713415
10.76 -0.673816
10.77 -0.637847
10.78 -0.60635
10.79 -0.580523
10.8 -0.560328
10.81 -0.547197
10.82 -0.540551
10.83 -0.54092
10.84 -0.548179
10.85 -0.561595
10.86 -0.581473
10.87 -0.606295
10.88 -0.635884
10.89 -0.669026
10.9 -0.704857
10.91 -0.742493
10.92 -0.780876
10.93 -0.819126
10.94 -0.856425
10.95 -0.891997
10.96 -0.925155
10.97 -0.955601
10.98 -0.982514
10.99 -1.00615
11 -1.02597
11.01 -1.04222
11.02 -1.05504
11.03 -1.06443
11.04 -1.0711
11.05 -1.07506
11.06 -1.07714
11.07 -1.07775
11.08 -1.07751
11.09 -1.07701
11.1 -1.07687
11.11 -1.07755
11.12 -1.07958
11.13 -1.08322
11.14 -1.08862
11.15 -1.09585
11.16 -1.10446
11.17 -1.11408
11.18 -1.12378
11.19 -1.13247
11.2 -1.13864
11.21 -1.14095
11.22 -1.13668
11.23 -1.12473
11.24 -1.10191
11.25 -1.06656
11.26 -1.0167
11.27 -0.949131
11.28 -0.8643
11.29 -0.758059
11.3 -0.632263
11.31 -0.485454
11.32 -0.318178
11.33 -0.132942
11.34 0.0705169
11.35 0.287032
11.36 0.514714
11.37 0.748638
11.38 0.984595
11.39 1.21726
11.4 1.44236
11.41 1.65307
11.42 1.84617
11.43 2.01608
11.44 2.15834
11.45 2.27179
11.46 2.3494
11.47 2.39459
11.48 2.40271
11.49 2.37639
11.5 2.31694
11.51 2.22454
11.52 2.10566
11.53 1.96024
11.54 1.79579
11.55 1.61551
11.56 1.42458
11.57 1.22806
11.58 1.03041
11.59 0.835889
11.6 0.648703
11.61 0.47173
11.62 0.307245
11.63 0.158114
11.64 0.023564
11.65 -0.0937157
11.66 -0.196124
11.67 -0.283518
11.68 -0.357306
11.69 -0.419931
11.7 -0.471964
11.71 -0.516801
11.72 -0.555568
11.73 -0.590567
11.74 -0.623307
11.75 -0.655106
11.76 -0.686951
11.77 -0.71949
11.78 -0.752817
11.79 -0.786782
11.8 -0.820768
11.81 -0.853981
11.82 -0.884994
11.83 -0.912816
11.84 -0.935543
11.85 -0.951857
11.86 -0.960362
11.87 -0.958865
11.88 -0.947291
11.89 -0.922811
11.9 -0.886105
11.91 -0.835824
11.92 -0.771659
11.93 -0.69467
11.94 -0.603561
11.95 -0.501143
11.96 -0.387295
11.97 -0.264387
11.98 -0.13425
11.99 0.00113211
12 0.138902
12.01 0.276483
12.02 0.411079
12.03 0.539769
12.04 0.659482
12.05 0.768447
12.06 0.862301
12.07 0.94112
12.08 1.0013
12.09 1.04261
12.1 1.06445
12.11 1.0652
12.12 1.0476
12.13 1.00983
12.14 0.955829
12.15 0.886489
12.16 0.804396
12.17 0.712916
12.18 0.614085
12.19 0.511858
12.2 0.408875
12.21 0.308145
12.22 0.211995
12.23 0.123137
12.24 0.0422362
12.25 -0.02826
12.26 -0.0890971
12.27 -0.139744
12.28 -0.180853
12.29 -0.214105
12.3 -0.24011
12.31 -0.261636
12.32 -0.280157
12.33 -0.29796
12.34 -0.316806
12.35 -0.338629
12.36 -0.364281
12.37 -0.395301
12.38 -0.431382
12.39 -0.472629
