# xPDFsuite Configuration #
[PDF]
wavelength = 0.1432
dataformat = twotheta
inputfile = 1_1Pt_CeO2_cycle-00007.chi
backgroundfile = background-00000.chi
mode = xray
bgscale = 1.07
composition = CeO2
outputtype = gr
qmaxinst = 28.9
qmin = 0.4
qmax = 27.9
rmax = 50.0
rmin = 0.0
rstep = 0.01
rpoly = 1.9824

[Misc]
inputdir = G:/SankarDec16/1Pt_2/Chi
savedir = D:/DATA/APS_CeO2/1Pt
backgroundfilefull = G:/SankarDec16/1Pt_2/Chi/background-00000.chi

#### start data
#S 1
#L r($\AA$)  G($\AA^{-2}$)
0 0
0.01 -0.00774436
0.02 -0.0149013
0.03 -0.0208659
0.04 -0.0251831
0.05 -0.0275999
0.06 -0.0277102
0.07 -0.0257863
0.08 -0.0216999
0.09 -0.0159703
0.1 -0.00895857
0.11 -0.00121595
0.12 0.00665856
0.13 0.0139896
0.14 0.0203031
0.15 0.0250151
0.16 0.0277859
0.17 0.0284814
0.18 0.0268256
0.19 0.0232224
0.2 0.0176913
0.21 0.0108415
0.22 0.00312445
0.23 -0.00483793
0.24 -0.0124793
0.25 -0.0190689
0.26 -0.0242657
0.27 -0.027534
0.28 -0.0286638
0.29 -0.0276452
0.3 -0.0243442
0.31 -0.019276
0.32 -0.0126061
0.33 -0.00500404
0.34 0.0030107
0.35 0.0107754
0.36 0.0177835
0.37 0.0232847
0.38 0.027087
0.39 0.0287289
0.4 0.0281407
0.41 0.0254369
0.42 0.0206331
0.43 0.0143309
0.44 0.00683425
0.45 -0.00115849
0.46 -0.00908491
0.47 -0.0162727
0.48 -0.0223006
0.49 -0.0264343
0.5 -0.028641
0.51 -0.0285567
0.52 -0.026256
0.53 -0.021974
0.54 -0.0158765
0.55 -0.00862336
0.56 -0.000644338
0.57 0.0073665
0.58 0.0148301
0.59 0.0210961
0.6 0.0258491
0.61 0.028406
0.62 0.0288963
0.63 0.0270713
0.64 0.0231483
0.65 0.0174728
0.66 0.0103545
0.67 0.00248148
0.68 -0.00561016
0.69 -0.0132627
0.7 -0.0199078
0.71 -0.0249471
0.72 -0.0281873
0.73 -0.0290286
0.74 -0.0277579
0.75 -0.0242545
0.76 -0.018869
0.77 -0.0120417
0.78 -0.00421276
0.79 0.00393408
0.8 0.0117815
0.81 0.018739
0.82 0.0242766
0.83 0.0278766
0.84 0.0294774
0.85 0.0285916
0.86 0.0256497
0.87 0.0206646
0.88 0.0141023
0.89 0.00647494
0.9 -0.0016712
0.91 -0.00969264
0.92 -0.0169277
0.93 -0.0228867
0.94 -0.0271115
0.95 -0.0292006
0.96 -0.0292319
0.97 -0.0268727
0.98 -0.0226765
0.99 -0.0168036
1 -0.00981849
1.01 -0.00228122
1.02 0.00517163
1.03 0.0119827
1.04 0.0174749
1.05 0.0213038
1.06 0.023122
1.07 0.0226898
1.08 0.0202515
1.09 0.0156911
1.1 0.0096938
1.11 0.00261754
1.12 -0.0048486
1.13 -0.0120801
1.14 -0.0182887
1.15 -0.0230203
1.16 -0.0255098
1.17 -0.0255665
1.18 -0.0229192
1.19 -0.0174513
1.2 -0.00960274
1.21 0.000611943
1.22 0.0122997
1.23 0.0249376
1.24 0.0376673
1.25 0.0497422
1.26 0.0601836
1.27 0.0685147
1.28 0.0737894
1.29 0.0758184
1.3 0.0742565
1.31 0.0689055
1.32 0.0602711
1.33 0.0481751
1.34 0.033647
1.35 0.0170898
1.36 -0.000627336
1.37 -0.0187274
1.38 -0.0363416
1.39 -0.0528283
1.4 -0.0673318
1.41 -0.0794846
1.42 -0.0888599
1.43 -0.0951129
1.44 -0.0985024
1.45 -0.0986375
1.46 -0.0962283
1.47 -0.0913462
1.48 -0.0844952
1.49 -0.0761523
1.5 -0.0666585
1.51 -0.0565476
1.52 -0.0461155
1.53 -0.035691
1.54 -0.0254762
1.55 -0.0156329
1.56 -0.00618961
1.57 0.00275789
1.58 0.0112912
1.59 0.0193842
1.6 0.0270502
1.61 0.0342765
1.62 0.0409244
1.63 0.0469406
1.64 0.0520354
1.65 0.0560487
1.66 0.0586999
1.67 0.0596375
1.68 0.0588077
1.69 0.0556691
1.7 0.0504403
1.71 0.0428888
1.72 0.0331796
1.73 0.0215964
1.74 0.00832648
1.75 -0.00598516
1.76 -0.0209012
1.77 -0.0357394
1.78 -0.0499039
1.79 -0.0626954
1.8 -0.0737653
1.81 -0.0823115
1.82 -0.0884187
1.83 -0.0917247
1.84 -0.092371
1.85 -0.0906847
1.86 -0.0868836
1.87 -0.0817649
1.88 -0.0758537
1.89 -0.0699693
1.9 -0.0647988
1.91 -0.0611155
1.92 -0.0592758
1.93 -0.060067
1.94 -0.0633032
1.95 -0.0692063
1.96 -0.0774347
1.97 -0.0874632
1.98 -0.0987211
1.99 -0.110265
2 -0.121134
2.01 -0.130364
2.02 -0.136996
2.03 -0.13995
2.04 -0.138931
2.05 -0.132629
2.06 -0.121522
2.07 -0.105089
2.08 -0.0836961
2.09 -0.0579473
2.1 -0.0280982
2.11 0.00457626
2.12 0.039527
2.13 0.0756137
2.14 0.112054
2.15 0.148029
2.16 0.183056
2.17 0.216526
2.18 0.248508
2.19 0.278919
2.2 0.308078
2.21 0.336418
2.22 0.36444
2.23 0.392703
2.24 0.421774
2.25 0.451973
2.26 0.483502
2.27 0.516335
2.28 0.550018
2.29 0.58392
2.3 0.617031
2.31 0.648036
2.32 0.675412
2.33 0.697848
2.34 0.712947
2.35 0.720198
2.36 0.717088
2.37 0.703447
2.38 0.678394
2.39 0.641276
2.4 0.593612
2.41 0.534582
2.42 0.467233
2.43 0.392589
2.44 0.31325
2.45 0.231697
2.46 0.150686
2.47 0.0726091
2.48 0.000468013
2.49 -0.0640424
2.5 -0.119117
2.51 -0.163065
2.52 -0.196482
2.53 -0.217594
2.54 -0.228853
2.55 -0.230515
2.56 -0.224657
2.57 -0.213471
2.58 -0.198955
2.59 -0.183733
2.6 -0.170074
2.61 -0.159896
2.62 -0.154802
2.63 -0.156258
2.64 -0.164136
2.65 -0.179569
2.66 -0.200916
2.67 -0.227719
2.68 -0.258277
2.69 -0.290842
2.7 -0.323488
2.71 -0.354428
2.72 -0.381597
2.73 -0.403833
2.74 -0.420037
2.75 -0.429344
2.76 -0.432422
2.77 -0.428769
2.78 -0.420351
2.79 -0.408094
2.8 -0.393932
2.81 -0.379652
2.82 -0.367387
2.83 -0.358518
2.84 -0.355054
2.85 -0.357612
2.86 -0.366854
2.87 -0.383057
2.88 -0.405011
2.89 -0.432449
2.9 -0.463031
2.91 -0.495188
2.92 -0.526616
2.93 -0.555394
2.94 -0.578929
2.95 -0.596283
2.96 -0.605256
2.97 -0.605821
2.98 -0.597678
2.99 -0.581066
3 -0.55789
3.01 -0.528998
3.02 -0.497373
3.03 -0.465173
3.04 -0.435186
3.05 -0.409598
3.06 -0.39145
3.07 -0.381462
3.08 -0.382018
3.09 -0.392737
3.1 -0.413635
3.11 -0.444061
3.12 -0.481568
3.13 -0.524822
3.14 -0.57037
3.15 -0.615613
3.16 -0.657457
3.17 -0.693612
3.18 -0.720865
3.19 -0.738816
3.2 -0.745243
3.21 -0.741063
3.22 -0.726773
3.23 -0.703726
3.24 -0.67489
3.25 -0.642568
3.26 -0.610469
3.27 -0.581896
3.28 -0.560216
3.29 -0.547689
3.3 -0.547842
3.31 -0.560309
3.32 -0.58719
3.33 -0.626609
3.34 -0.67731
3.35 -0.736937
3.36 -0.801601
3.37 -0.86774
3.38 -0.931032
3.39 -0.987179
3.4 -1.03229
3.41 -1.06398
3.42 -1.0782
3.43 -1.07615
3.44 -1.05577
3.45 -1.02007
3.46 -0.971166
3.47 -0.91259
3.48 -0.849359
3.49 -0.786396
3.5 -0.728738
3.51 -0.681601
3.52 -0.649176
3.53 -0.633546
3.54 -0.638406
3.55 -0.660912
3.56 -0.701268
3.57 -0.753794
3.58 -0.813228
3.59 -0.871527
3.6 -0.920907
3.61 -0.948779
3.62 -0.948282
3.63 -0.90722
3.64 -0.816917
3.65 -0.672817
3.66 -0.462551
3.67 -0.191981
3.68 0.147165
3.69 0.546026
3.7 1.00019
3.71 1.50204
3.72 2.03619
3.73 2.59212
3.74 3.1511
3.75 3.69695
3.76 4.21149
3.77 4.68098
3.78 5.08257
3.79 5.41239
3.8 5.64919
3.81 5.79261
3.82 5.83648
3.83 5.7754
3.84 5.62257
3.85 5.36935
3.86 5.0393
3.87 4.63706
3.88 4.17932
3.89 3.68269
3.9 3.16103
3.91 2.63275
3.92 2.11304
3.93 1.61559
3.94 1.1521
3.95 0.734837
3.96 0.365377
3.97 0.0568079
3.98 -0.197968
3.99 -0.39499
4 -0.538998
4.01 -0.637128
4.02 -0.691571
4.03 -0.715176
4.04 -0.712201
4.05 -0.693123
4.06 -0.664654
4.07 -0.63376
4.08 -0.605652
4.09 -0.585581
4.1 -0.575129
4.11 -0.57646
4.12 -0.589339
4.13 -0.612192
4.14 -0.643818
4.15 -0.680478
4.16 -0.719552
4.17 -0.757476
4.18 -0.791316
4.19 -0.817838
4.2 -0.835805
4.21 -0.841962
4.22 -0.837111
4.23 -0.820064
4.24 -0.791533
4.25 -0.752922
4.26 -0.704585
4.27 -0.649303
4.28 -0.587914
4.29 -0.522627
4.3 -0.454755
4.31 -0.38554
4.32 -0.315948
4.33 -0.246587
4.34 -0.177704
4.35 -0.109369
4.36 -0.0414186
4.37 0.0263659
4.38 0.0941857
4.39 0.162101
4.4 0.229974
4.41 0.297368
4.42 0.363586
4.43 0.4274
4.44 0.487854
4.45 0.54258
4.46 0.590672
4.47 0.629803
4.48 0.658334
4.49 0.675416
4.5 0.678361
4.51 0.668311
4.52 0.643238
4.53 0.604648
4.54 0.553046
4.55 0.489294
4.56 0.416254
4.57 0.334806
4.58 0.248535
4.59 0.1595
4.6 0.070505
4.61 -0.0162568
4.62 -0.0980666
4.63 -0.173891
4.64 -0.241525
4.65 -0.300762
4.66 -0.351131
4.67 -0.392383
4.68 -0.425995
4.69 -0.451764
4.7 -0.472016
4.71 -0.487625
4.72 -0.50025
4.73 -0.511308
4.74 -0.522043
4.75 -0.533462
4.76 -0.546424
4.77 -0.561239
4.78 -0.578031
4.79 -0.596674
4.8 -0.616574
4.81 -0.63721
4.82 -0.657724
4.83 -0.677324
4.84 -0.695208
4.85 -0.710867
4.86 -0.723483
4.87 -0.733197
4.88 -0.739569
4.89 -0.743055
4.9 -0.743961
4.91 -0.742775
4.92 -0.740312
4.93 -0.737179
4.94 -0.734183
4.95 -0.731974
4.96 -0.731123
4.97 -0.731918
4.98 -0.734797
4.99 -0.739514
5 -0.746164
5.01 -0.75429
5.02 -0.763546
5.03 -0.77348
5.04 -0.783599
5.05 -0.793447
5.06 -0.802711
5.07 -0.811103
5.08 -0.818501
5.09 -0.824946
5.1 -0.830418
5.11 -0.835179
5.12 -0.839287
5.13 -0.842885
5.14 -0.845934
5.15 -0.848172
5.16 -0.849283
5.17 -0.848267
5.18 -0.844424
5.19 -0.836257
5.2 -0.822216
5.21 -0.80107
5.22 -0.769956
5.23 -0.728561
5.24 -0.673871
5.25 -0.605622
5.26 -0.522786
5.27 -0.424292
5.28 -0.312059
5.29 -0.184936
5.3 -0.0467523
5.31 0.101008
5.32 0.254738
5.33 0.410716
5.34 0.564396
5.35 0.711822
5.36 0.847364
5.37 0.967333
5.38 1.06762
5.39 1.14327
5.4 1.19431
5.41 1.21437
5.42 1.2068
5.43 1.16929
5.44 1.10364
5.45 1.01324
5.46 0.898663
5.47 0.766784
5.48 0.619998
5.49 0.464525
5.5 0.304904
5.51 0.146379
5.52 -0.00704057
5.53 -0.14989
5.54 -0.280276
5.55 -0.394634
5.56 -0.49141
5.57 -0.570786
5.58 -0.630742
5.59 -0.674691
5.6 -0.702134
5.61 -0.71652
5.62 -0.719896
5.63 -0.714545
5.64 -0.703652
5.65 -0.688905
5.66 -0.672781
5.67 -0.656619
5.68 -0.641473
5.69 -0.627677
5.7 -0.615273
5.71 -0.603515
5.72 -0.591468
5.73 -0.577872
5.74 -0.561433
5.75 -0.54053
5.76 -0.514587
5.77 -0.481786
5.78 -0.442624
5.79 -0.39659
5.8 -0.344385
5.81 -0.287289
5.82 -0.226461
5.83 -0.164234
5.84 -0.102759
5.85 -0.0444724
5.86 0.00831498
5.87 0.0527683
5.88 0.0879367
5.89 0.110411
5.9 0.120794
5.91 0.117492
5.92 0.100728
5.93 0.0717394
5.94 0.0303293
5.95 -0.0203147
5.96 -0.0793361
5.97 -0.143761
5.98 -0.211474
5.99 -0.280068
6 -0.347508
6.01 -0.411477
6.02 -0.470952
6.03 -0.524517
6.04 -0.571607
6.05 -0.612432
6.06 -0.646551
6.07 -0.675487
6.08 -0.699545
6.09 -0.720281
6.1 -0.738775
6.11 -0.756213
6.12 -0.773642
6.13 -0.791985
6.14 -0.811652
6.15 -0.832969
6.16 -0.855815
6.17 -0.879764
6.18 -0.904239
6.19 -0.928413
6.2 -0.951325
6.21 -0.972161
6.22 -0.990163
6.23 -1.00452
6.24 -1.01529
6.25 -1.02179
6.26 -1.02483
6.27 -1.02459
6.28 -1.02188
6.29 -1.01759
6.3 -1.01249
6.31 -1.00742
6.32 -1.00288
6.33 -0.998988
6.34 -0.995405
6.35 -0.991097
6.36 -0.984706
6.37 -0.973329
6.38 -0.954735
6.39 -0.924932
6.4 -0.879848
6.41 -0.816519
6.42 -0.727854
6.43 -0.613427
6.44 -0.466144
6.45 -0.285554
6.46 -0.0694779
6.47 0.184738
6.48 0.472441
6.49 0.79676
6.5 1.14901
6.51 1.52638
6.52 1.92126
6.53 2.32548
6.54 2.7299
6.55 3.12523
6.56 3.49972
6.57 3.84441
6.58 4.14985
6.59 4.40399
6.6 4.60531
6.61 4.73801
6.62 4.80694
6.63 4.80451
6.64 4.73136
6.65 4.59297
6.66 4.38565
6.67 4.12423
6.68 3.80951
6.69 3.45485
6.7 3.0691
6.71 2.66239
6.72 2.2467
6.73 1.83248
6.74 1.42948
6.75 1.04734
6.76 0.694167
6.77 0.374051
6.78 0.0963987
6.79 -0.141786
6.8 -0.334181
6.81 -0.484762
6.82 -0.594893
6.83 -0.665978
6.84 -0.705997
6.85 -0.715365
6.86 -0.703539
6.87 -0.674091
6.88 -0.632999
6.89 -0.585365
6.9 -0.535321
6.91 -0.486606
6.92 -0.442273
6.93 -0.404002
6.94 -0.372893
6.95 -0.349743
6.96 -0.333461
6.97 -0.324332
6.98 -0.320309
6.99 -0.320589
7 -0.323753
7.01 -0.328616
7.02 -0.334375
7.03 -0.34037
7.04 -0.346422
7.05 -0.352693
7.06 -0.359644
7.07 -0.368154
7.08 -0.378894
7.09 -0.393361
7.1 -0.412005
7.11 -0.435941
7.12 -0.465692
7.13 -0.501128
7.14 -0.542773
7.15 -0.589238
7.16 -0.640131
7.17 -0.693742
7.18 -0.748604
7.19 -0.802806
7.2 -0.854757
7.21 -0.902085
7.22 -0.943817
7.23 -0.978243
7.24 -1.00446
7.25 -1.02251
7.26 -1.03139
7.27 -1.03282
7.28 -1.02685
7.29 -1.01544
7.3 -1.00005
7.31 -0.982442
7.32 -0.964487
7.33 -0.948001
7.34 -0.934178
7.35 -0.924191
7.36 -0.918535
7.37 -0.9169
7.38 -0.919025
7.39 -0.923182
7.4 -0.927729
7.41 -0.930243
7.42 -0.928248
7.43 -0.918353
7.44 -0.898851
7.45 -0.865169
7.46 -0.816888
7.47 -0.75111
7.48 -0.666803
7.49 -0.564687
7.5 -0.443024
7.51 -0.305745
7.52 -0.153117
7.53 0.0106219
7.54 0.182167
7.55 0.357303
7.56 0.53156
7.57 0.699539
7.58 0.857458
7.59 1.00029
7.6 1.12393
7.61 1.22649
7.62 1.30229
7.63 1.35332
7.64 1.3755
7.65 1.37102
7.66 1.34053
7.67 1.28447
7.68 1.20783
7.69 1.11061
7.7 0.998985
7.71 0.875415
7.72 0.744187
7.73 0.609184
7.74 0.474078
7.75 0.342067
7.76 0.216624
7.77 0.0999042
7.78 -0.00611494
7.79 -0.0990935
7.8 -0.179481
7.81 -0.244537
7.82 -0.296111
7.83 -0.333335
7.84 -0.356907
7.85 -0.36832
7.86 -0.367133
7.87 -0.356165
7.88 -0.335501
7.89 -0.30731
7.9 -0.27292
7.91 -0.233714
7.92 -0.191672
7.93 -0.148185
7.94 -0.10512
7.95 -0.0641372
7.96 -0.027009
7.97 0.00505197
7.98 0.0296918
7.99 0.0466584
8 0.0538135
8.01 0.0509758
8.02 0.0375649
8.03 0.0127545
8.04 -0.0220515
8.05 -0.0678416
8.06 -0.122209
8.07 -0.18454
8.08 -0.253003
8.09 -0.325558
8.1 -0.400441
8.11 -0.475374
8.12 -0.548289
8.13 -0.617406
8.14 -0.68122
8.15 -0.738032
8.16 -0.787842
8.17 -0.829066
8.18 -0.862892
8.19 -0.889229
8.2 -0.909074
8.21 -0.923845
8.22 -0.934385
8.23 -0.942563
8.24 -0.949375
8.25 -0.955975
8.26 -0.962953
8.27 -0.970494
8.28 -0.978151
8.29 -0.984755
8.3 -0.988741
8.31 -0.987675
8.32 -0.978554
8.33 -0.958973
8.34 -0.923655
8.35 -0.871471
8.36 -0.796909
8.37 -0.698605
8.38 -0.574361
8.39 -0.421118
8.4 -0.2417
8.41 -0.0326946
8.42 0.200059
8.43 0.455276
8.44 0.728042
8.45 1.01242
8.46 1.3027
8.47 1.59143
8.48 1.87076
8.49 2.13352
8.5 2.37277
8.51 2.57949
8.52 2.75174
8.53 2.8783
8.54 2.96137
8.55 2.99539
8.56 2.97986
8.57 2.91838
8.58 2.80743
8.59 2.65721
8.6 2.46771
8.61 2.2478
8.62 2.00344
8.63 1.74104
8.64 1.46911
8.65 1.19405
8.66 0.922995
8.67 0.662129
8.68 0.41709
8.69 0.190802
8.7 -0.0105693
8.71 -0.188444
8.72 -0.338825
8.73 -0.463706
8.74 -0.563886
8.75 -0.639878
8.76 -0.696526
8.77 -0.733904
8.78 -0.757647
8.79 -0.769848
8.8 -0.774
8.81 -0.773237
8.82 -0.769878
8.83 -0.766347
8.84 -0.764377
8.85 -0.765136
8.86 -0.769337
8.87 -0.777549
8.88 -0.789289
8.89 -0.804742
8.9 -0.822863
8.91 -0.843174
8.92 -0.864849
8.93 -0.887138
8.94 -0.909368
8.95 -0.931029
8.96 -0.951635
8.97 -0.971
8.98 -0.989019
8.99 -1.00563
9 -1.0211
9.01 -1.03543
9.02 -1.04896
9.03 -1.0618
9.04 -1.07408
9.05 -1.08585
9.06 -1.09696
9.07 -1.10729
9.08 -1.11641
9.09 -1.12391
9.1 -1.12929
9.11 -1.13168
9.12 -1.13081
9.13 -1.12537
9.14 -1.11528
9.15 -1.09961
9.16 -1.07784
9.17 -1.05002
9.18 -1.0151
9.19 -0.974029
9.2 -0.926212
9.21 -0.87251
9.22 -0.813445
9.23 -0.749556
9.24 -0.682248
9.25 -0.61222
9.26 -0.541076
9.27 -0.470036
9.28 -0.400624
9.29 -0.334016
9.3 -0.27217
9.31 -0.215675
9.32 -0.166415
9.33 -0.124948
9.34 -0.0920401
9.35 -0.0688458
9.36 -0.0545554
9.37 -0.0506088
9.38 -0.0553906
9.39 -0.0689796
9.4 -0.090411
9.41 -0.118216
9.42 -0.151783
9.43 -0.188953
9.44 -0.228615
9.45 -0.268986
9.46 -0.308673
9.47 -0.346082
9.48 -0.380356
9.49 -0.409882
9.5 -0.434544
9.51 -0.453578
9.52 -0.466887
9.53 -0.475006
9.54 -0.477784
9.55 -0.476662
9.56 -0.472121
9.57 -0.46553
9.58 -0.457964
9.59 -0.450672
9.6 -0.444631
9.61 -0.441142
9.62 -0.440686
9.63 -0.444052
9.64 -0.451604
9.65 -0.463171
9.66 -0.479149
9.67 -0.498604
9.68 -0.521452
9.69 -0.546812
9.7 -0.574054
9.71 -0.602532
9.72 -0.63153
9.73 -0.660521
9.74 -0.689077
9.75 -0.716879
9.76 -0.743727
9.77 -0.769594
9.78 -0.794276
9.79 -0.817851
9.8 -0.839978
9.81 -0.860348
9.82 -0.878351
9.83 -0.892723
9.84 -0.902605
9.85 -0.905248
9.86 -0.8993
9.87 -0.88158
9.88 -0.848887
9.89 -0.799286
9.9 -0.726688
9.91 -0.631186
9.92 -0.506868
9.93 -0.353027
9.94 -0.167898
9.95 0.0516575
9.96 0.301825
9.97 0.586255
9.98 0.898241
9.99 1.23624
10 1.59488
10.01 1.96744
10.02 2.34782
10.03 2.72748
10.04 3.09779
10.05 3.45038
10.06 3.77734
10.07 4.06795
10.08 4.31955
10.09 4.51879
10.1 4.66716
10.11 4.75764
10.12 4.78829
10.13 4.7628
10.14 4.6752
10.15 4.53718
10.16 4.3473
10.17 4.11534
10.18 3.84785
10.19 3.55134
10.2 3.23659
10.21 2.91001
10.22 2.58128
10.23 2.25762
10.24 1.94642
10.25 1.65212
10.26 1.38234
10.27 1.13687
10.28 0.920793
10.29 0.732924
10.3 0.572833
10.31 0.440621
10.32 0.330983
10.33 0.244095
10.34 0.17355
10.35 0.11686
10.36 0.0698897
10.37 0.0287624
10.38 -0.00943069
10.39 -0.047733
10.4 -0.0883953
10.41 -0.132907
10.42 -0.182147
10.43 -0.236823
10.44 -0.296171
10.45 -0.360241
10.46 -0.427466
10.47 -0.496897
10.48 -0.567077
10.49 -0.636723
10.5 -0.704264
10.51 -0.768865
10.52 -0.829136
10.53 -0.884523
10.54 -0.934487
10.55 -0.978241
10.56 -1.01629
10.57 -1.04766
10.58 -1.07321
10.59 -1.09266
10.6 -1.10615
10.61 -1.1142
10.62 -1.11619
10.63 -1.11305
10.64 -1.10423
10.65 -1.09018
10.66 -1.071
10.67 -1.04651
10.68 -1.01752
10.69 -0.983704
10.7 -0.946154
10.71 -0.905229
10.72 -0.861802
10.73 -0.816887
10.74 -0.771509
10.75 -0.72685
10.76 -0.68425
10.77 -0.644855
10.78 -0.609743
10.79 -0.580386
10.8 -0.556952
10.81 -0.541149
10.82 -0.532478
10.83 -0.531598
10.84 -0.538407
10.85 -0.552072
10.86 -0.572866
10.87 -0.599022
10.88 -0.630204
10.89 -0.664953
10.9 -0.702205
10.91 -0.740849
10.92 -0.779738
10.93 -0.817809
10.94 -0.854308
10.95 -0.888466
10.96 -0.919727
10.97 -0.947989
10.98 -0.972655
10.99 -0.994233
11 -1.01249
11.01 -1.0279
11.02 -1.04077
11.03 -1.05135
11.04 -1.06026
11.05 -1.06765
11.06 -1.0741
11.07 -1.07984
11.08 -1.08519
11.09 -1.09038
11.1 -1.0956
11.11 -1.10096
11.12 -1.10653
11.13 -1.11229
11.14 -1.11817
11.15 -1.12397
11.16 -1.12944
11.17 -1.13405
11.18 -1.13734
11.19 -1.13847
11.2 -1.13643
11.21 -1.13039
11.22 -1.11825
11.23 -1.09937
11.24 -1.07119
11.25 -1.0324
11.26 -0.981318
11.27 -0.915058
11.28 -0.833801
11.29 -0.733574
11.3 -0.615605
11.31 -0.478102
11.32 -0.320972
11.33 -0.146062
11.34 0.0476763
11.35 0.255656
11.36 0.47678
11.37 0.706554
11.38 0.941112
11.39 1.17555
11.4 1.40524
11.41 1.62359
11.42 1.82659
11.43 2.00828
11.44 2.16341
11.45 2.29004
11.46 2.38018
11.47 2.43655
11.48 2.45354
11.49 2.43325
11.5 2.37655
11.51 2.28309
11.52 2.15975
11.53 2.00612
11.54 1.83062
11.55 1.63684
11.56 1.43083
11.57 1.21858
11.58 1.00558
11.59 0.796944
11.6 0.59795
11.61 0.412135
11.62 0.242301
11.63 0.0919668
11.64 -0.0400093
11.65 -0.150501
11.66 -0.242823
11.67 -0.317219
11.68 -0.375976
11.69 -0.422528
11.7 -0.458469
11.71 -0.488181
11.72 -0.51389
11.73 -0.538648
11.74 -0.56456
11.75 -0.59366
11.76 -0.626627
11.77 -0.664602
11.78 -0.706795
11.79 -0.752701
11.8 -0.800845
11.81 -0.849433
11.82 -0.89604
11.83 -0.93865
11.84 -0.974264
11.85 -1.00078
11.86 -1.01619
11.87 -1.01757
11.88 -1.00512
11.89 -0.975505
11.9 -0.930271
11.91 -0.868415
11.92 -0.790477
11.93 -0.698513
11.94 -0.592227
11.95 -0.475456
11.96 -0.349184
11.97 -0.216572
11.98 -0.0800713
11.99 0.0575814
12 0.193808
12.01 0.325509
12.02 0.450755
12.03 0.566964
12.04 0.67192
12.05 0.764862
12.06 0.842438
12.07 0.905782
12.08 0.952421
12.09 0.982965
12.1 0.99747
12.11 0.995138
12.12 0.978466
12.13 0.946245
12.14 0.901578
12.15 0.845082
12.16 0.778541
12.17 0.704311
12.18 0.623497
12.19 0.538927
12.2 0.452136
12.21 0.365227
12.22 0.279798
12.23 0.197663
12.24 0.119606
12.25 0.0473333
12.26 -0.0192032
12.27 -0.079354
12.28 -0.133135
12.29 -0.181314
12.3 -0.223805
12.31 -0.262242
12.32 -0.297174
12.33 -0.329973
12.34 -0.361678
12.35 -0.393356
12.36 -0.425794
12.37 -0.459796
12.38 -0.495493
