# xPDFsuite Configuration #
[PDF]
wavelength = 0.1432
dataformat = twotheta
inputfile = 1_1Pt_CeO2_cycle-00000.chi
backgroundfile = background-00000.chi
mode = xray
bgscale = 1.07
composition = CeO2
outputtype = gr
qmaxinst = 28.9
qmin = 0.4
qmax = 27.9
rmax = 50.0
rmin = 0.0
rstep = 0.01
rpoly = 1.9824

[Misc]
inputdir = G:/SankarDec16/1Pt_2/Chi
savedir = D:/DATA/APS_CeO2/1Pt
backgroundfilefull = G:/SankarDec16/1Pt_2/Chi/background-00000.chi

#### start data
#S 1
#L r($\AA$)  G($\AA^{-2}$)
0 0
0.01 -0.00520265
0.02 -0.0100139
0.03 -0.0140306
0.04 -0.0169493
0.05 -0.0186013
0.06 -0.0187152
0.07 -0.0174723
0.08 -0.0147855
0.09 -0.0110003
0.1 -0.00635572
0.11 -0.00121744
0.12 0.00401612
0.13 0.00889798
0.14 0.013112
0.15 0.0162713
0.16 0.0181499
0.17 0.0186583
0.18 0.0176133
0.19 0.0152814
0.2 0.0116752
0.21 0.00719703
0.22 0.00214479
0.23 -0.00307126
0.24 -0.00807754
0.25 -0.0123931
0.26 -0.0157935
0.27 -0.0179272
0.28 -0.0186574
0.29 -0.0179789
0.3 -0.0158065
0.31 -0.0124797
0.32 -0.00811042
0.33 -0.00313923
0.34 0.00209163
0.35 0.00714659
0.36 0.0116952
0.37 0.0152458
0.38 0.0176768
0.39 0.0186892
0.4 0.0182424
0.41 0.0164162
0.42 0.0132274
0.43 0.00907293
0.44 0.00415832
0.45 -0.0010586
0.46 -0.00620799
0.47 -0.01085
0.48 -0.0147137
0.49 -0.0173208
0.5 -0.0186588
0.51 -0.0184962
0.52 -0.0168907
0.53 -0.0140037
0.54 -0.00995381
0.55 -0.00517547
0.56 4.16525e-05
0.57 0.00524495
0.58 0.0100554
0.59 0.0140503
0.6 0.0170324
0.61 0.0185604
0.62 0.0187321
0.63 0.0173954
0.64 0.0147044
0.65 0.0108941
0.66 0.0061799
0.67 0.00101264
0.68 -0.0042479
0.69 -0.00917658
0.7 -0.0134041
0.71 -0.0165458
0.72 -0.0184881
0.73 -0.0188491
0.74 -0.0178321
0.75 -0.0153727
0.76 -0.0117135
0.77 -0.00715199
0.78 -0.00198966
0.79 0.00332886
0.8 0.00839212
0.81 0.0128236
0.82 0.0162828
0.83 0.0184425
0.84 0.0192787
0.85 0.018488
0.86 0.0163684
0.87 0.0129449
0.88 0.00853486
0.89 0.00348022
0.9 -0.00185107
0.91 -0.00704663
0.92 -0.0116724
0.93 -0.0154248
0.94 -0.0180178
0.95 -0.0192089
0.96 -0.0190682
0.97 -0.0174054
0.98 -0.0145957
0.99 -0.0107657
1 -0.00629463
1.01 -0.00155034
1.02 0.00304407
1.03 0.00714566
1.04 0.0103208
1.05 0.0123764
1.06 0.0131146
1.07 0.0124192
1.08 0.0104809
1.09 0.00728223
1.1 0.00328911
1.11 -0.00121702
1.12 -0.00576316
1.13 -0.0099331
1.14 -0.0131799
1.15 -0.0152434
1.16 -0.0156111
1.17 -0.0142093
1.18 -0.0108937
1.19 -0.00563869
1.2 0.00120615
1.21 0.0095624
1.22 0.0187839
1.23 0.0284505
1.24 0.0379338
1.25 0.0466971
1.26 0.0540059
1.27 0.0595536
1.28 0.0626308
1.29 0.0631335
1.3 0.0608145
1.31 0.0555336
1.32 0.047688
1.33 0.0371295
1.34 0.024648
1.35 0.0105366
1.36 -0.00454514
1.37 -0.0200012
1.38 -0.0351669
1.39 -0.0495228
1.4 -0.0623853
1.41 -0.0734209
1.42 -0.0822428
1.43 -0.0885012
1.44 -0.0923379
1.45 -0.0933148
1.46 -0.0919489
1.47 -0.0881838
1.48 -0.0823595
1.49 -0.0748317
1.5 -0.065795
1.51 -0.0557627
1.52 -0.0449522
1.53 -0.0337594
1.54 -0.0224437
1.55 -0.0112822
1.56 -0.000456957
1.57 0.00975438
1.58 0.0192805
1.59 0.0279099
1.6 0.0355255
1.61 0.042053
1.62 0.0472392
1.63 0.0511484
1.64 0.0534915
1.65 0.0543163
1.66 0.053517
1.67 0.0509958
1.68 0.046933
1.69 0.0411321
1.7 0.0339727
1.71 0.0255028
1.72 0.0160258
1.73 0.0058577
1.74 -0.00468306
1.75 -0.0151997
1.76 -0.025289
1.77 -0.0346201
1.78 -0.0428755
1.79 -0.0497406
1.8 -0.0552106
1.81 -0.0589779
1.82 -0.061351
1.83 -0.0623604
1.84 -0.0623406
1.85 -0.0616654
1.86 -0.060752
1.87 -0.0600657
1.88 -0.0601266
1.89 -0.0613011
1.9 -0.0639425
1.91 -0.068363
1.92 -0.0744696
1.93 -0.0824824
1.94 -0.0918924
1.95 -0.102452
1.96 -0.113555
1.97 -0.124584
1.98 -0.134699
1.99 -0.143298
2 -0.149372
2.01 -0.152435
2.02 -0.151862
2.03 -0.147041
2.04 -0.138173
2.05 -0.124503
2.06 -0.10689
2.07 -0.0852912
2.08 -0.0603627
2.09 -0.0328214
2.1 -0.00319405
2.11 0.0275592
2.12 0.0588515
2.13 0.0900052
2.14 0.120572
2.15 0.1502
2.16 0.178888
2.17 0.206588
2.18 0.233727
2.19 0.260686
2.2 0.288055
2.21 0.316354
2.22 0.346326
2.23 0.378187
2.24 0.412499
2.25 0.449094
2.26 0.487803
2.27 0.528092
2.28 0.569015
2.29 0.609315
2.3 0.64764
2.31 0.682165
2.32 0.711089
2.33 0.733019
2.34 0.745276
2.35 0.747739
2.36 0.737865
2.37 0.716019
2.38 0.681699
2.39 0.634786
2.4 0.577345
2.41 0.509198
2.42 0.433817
2.43 0.352781
2.44 0.269044
2.45 0.185236
2.46 0.104493
2.47 0.0288728
2.48 -0.0384767
2.49 -0.0963436
2.5 -0.143228
2.51 -0.177883
2.52 -0.201469
2.53 -0.212724
2.54 -0.214618
2.55 -0.207923
2.56 -0.19513
2.57 -0.178668
2.58 -0.160962
2.59 -0.144464
2.6 -0.131692
2.61 -0.124244
2.62 -0.12356
2.63 -0.130838
2.64 -0.14548
2.65 -0.168325
2.66 -0.197233
2.67 -0.231369
2.68 -0.268648
2.69 -0.307065
2.7 -0.344319
2.71 -0.378629
2.72 -0.407668
2.73 -0.430398
2.74 -0.44575
2.75 -0.452948
2.76 -0.45295
2.77 -0.445336
2.78 -0.432439
2.79 -0.415375
2.8 -0.396344
2.81 -0.377337
2.82 -0.360722
2.83 -0.34798
2.84 -0.341312
2.85 -0.341361
2.86 -0.348849
2.87 -0.364095
2.88 -0.385796
2.89 -0.413761
2.9 -0.44548
2.91 -0.479374
2.92 -0.513043
2.93 -0.544469
2.94 -0.571012
2.95 -0.591606
2.96 -0.603994
2.97 -0.608042
2.98 -0.603372
2.99 -0.590122
3 -0.570127
3.01 -0.544101
3.02 -0.514982
3.03 -0.484813
3.04 -0.45631
3.05 -0.431624
3.06 -0.413677
3.07 -0.403256
3.08 -0.402656
3.09 -0.411583
3.1 -0.430093
3.11 -0.457598
3.12 -0.491801
3.13 -0.531448
3.14 -0.57327
3.15 -0.614803
3.16 -0.653111
3.17 -0.686023
3.18 -0.710496
3.19 -0.726159
3.2 -0.730927
3.21 -0.725692
3.22 -0.710962
3.23 -0.688073
3.24 -0.659872
3.25 -0.628638
3.26 -0.597912
3.27 -0.570911
3.28 -0.55088
3.29 -0.539987
3.3 -0.541672
3.31 -0.555536
3.32 -0.583641
3.33 -0.624139
3.34 -0.675809
3.35 -0.736362
3.36 -0.801988
3.37 -0.869229
3.38 -0.933824
3.39 -0.991559
3.4 -1.03857
3.41 -1.07249
3.42 -1.08923
3.43 -1.0899
3.44 -1.07232
3.45 -1.03932
3.46 -0.992854
3.47 -0.936194
3.48 -0.874227
3.49 -0.811539
3.5 -0.753147
3.51 -0.704061
3.52 -0.66844
3.53 -0.648441
3.54 -0.64773
3.55 -0.663789
3.56 -0.696965
3.57 -0.741965
3.58 -0.793861
3.59 -0.845045
3.6 -0.888045
3.61 -0.910827
3.62 -0.906677
3.63 -0.863789
3.64 -0.773636
3.65 -0.63164
3.66 -0.425609
3.67 -0.160984
3.68 0.170557
3.69 0.560668
3.7 1.00533
3.71 1.49744
3.72 2.0221
3.73 2.56944
3.74 3.12105
3.75 3.66129
3.76 4.17227
3.77 4.64033
3.78 5.04299
3.79 5.37598
3.8 5.61813
3.81 5.76859
3.82 5.82084
3.83 5.769
3.84 5.62569
3.85 5.38172
3.86 5.06014
3.87 4.66508
3.88 4.21283
3.89 3.71982
3.9 3.19949
3.91 2.67053
3.92 2.14795
3.93 1.64586
3.94 1.17622
3.95 0.751671
3.96 0.374335
3.97 0.057747
3.98 -0.204695
3.99 -0.40857
4 -0.558232
4.01 -0.66061
4.02 -0.717527
4.03 -0.741998
4.04 -0.738113
4.05 -0.716656
4.06 -0.684539
4.07 -0.649023
4.08 -0.615744
4.09 -0.590299
4.1 -0.574671
4.11 -0.571376
4.12 -0.580476
4.13 -0.600547
4.14 -0.630646
4.15 -0.666896
4.16 -0.706764
4.17 -0.746435
4.18 -0.782791
4.19 -0.812342
4.2 -0.833535
4.21 -0.842815
4.22 -0.840723
4.23 -0.82581
4.24 -0.798609
4.25 -0.760465
4.26 -0.711595
4.27 -0.654955
4.28 -0.591402
4.29 -0.523397
4.3 -0.452455
4.31 -0.380082
4.32 -0.307483
4.33 -0.23557
4.34 -0.164729
4.35 -0.0952342
4.36 -0.0270061
4.37 0.0401954
4.38 0.106527
4.39 0.172276
4.4 0.237396
4.41 0.301723
4.42 0.364776
4.43 0.425598
4.44 0.483421
4.45 0.536162
4.46 0.58297
4.47 0.621666
4.48 0.650611
4.49 0.668871
4.5 0.673715
4.51 0.666026
4.52 0.643612
4.53 0.607705
4.54 0.558579
4.55 0.49683
4.56 0.425188
4.57 0.34426
4.58 0.257668
4.59 0.16738
4.6 0.0762765
4.61 -0.0132988
4.62 -0.0985019
4.63 -0.178007
4.64 -0.249377
4.65 -0.312121
4.66 -0.365526
4.67 -0.409064
4.68 -0.44413
4.69 -0.470243
4.7 -0.489839
4.71 -0.503729
4.72 -0.513696
4.73 -0.521353
4.74 -0.528099
4.75 -0.535254
4.76 -0.543923
4.77 -0.554686
4.78 -0.567899
4.79 -0.583674
4.8 -0.601466
4.81 -0.620967
4.82 -0.64118
4.83 -0.661315
4.84 -0.680408
4.85 -0.697747
4.86 -0.712313
4.87 -0.723986
4.88 -0.73208
4.89 -0.736852
4.9 -0.738449
4.91 -0.737212
4.92 -0.734004
4.93 -0.729364
4.94 -0.724324
4.95 -0.719673
4.96 -0.716249
4.97 -0.714602
4.98 -0.715522
4.99 -0.718972
5 -0.725402
5.01 -0.734479
5.02 -0.745993
5.03 -0.759593
5.04 -0.774585
5.05 -0.790536
5.06 -0.806709
5.07 -0.822565
5.08 -0.837549
5.09 -0.85131
5.1 -0.863303
5.11 -0.873506
5.12 -0.881459
5.13 -0.887142
5.14 -0.890317
5.15 -0.890551
5.16 -0.8878
5.17 -0.880955
5.18 -0.869878
5.19 -0.853336
5.2 -0.8303
5.21 -0.800033
5.22 -0.76026
5.23 -0.71108
5.24 -0.65007
5.25 -0.577229
5.26 -0.491798
5.27 -0.392951
5.28 -0.282371
5.29 -0.159084
5.3 -0.0263473
5.31 0.114589
5.32 0.260648
5.33 0.408632
5.34 0.554582
5.35 0.695016
5.36 0.824911
5.37 0.940891
5.38 1.03915
5.39 1.11502
5.4 1.16832
5.41 1.19287
5.42 1.19147
5.43 1.16157
5.44 1.10443
5.45 1.0229
5.46 0.916918
5.47 0.792852
5.48 0.652421
5.49 0.501478
5.5 0.344194
5.51 0.185442
5.52 0.0294223
5.53 -0.118727
5.54 -0.256526
5.55 -0.380245
5.56 -0.487788
5.57 -0.578754
5.58 -0.650511
5.59 -0.705833
5.6 -0.743506
5.61 -0.766466
5.62 -0.776272
5.63 -0.774676
5.64 -0.76492
5.65 -0.748143
5.66 -0.727317
5.67 -0.703757
5.68 -0.678936
5.69 -0.653732
5.7 -0.628613
5.71 -0.603601
5.72 -0.578371
5.73 -0.552331
5.74 -0.524764
5.75 -0.494709
5.76 -0.461776
5.77 -0.42486
5.78 -0.384238
5.79 -0.339653
5.8 -0.29164
5.81 -0.24111
5.82 -0.189089
5.83 -0.137168
5.84 -0.0871198
5.85 -0.040676
5.86 0.000417358
5.87 0.0339957
5.88 0.0595178
5.89 0.0743212
5.9 0.0791174
5.91 0.0727495
5.92 0.0555539
5.93 0.0286415
5.94 -0.00801629
5.95 -0.0518225
5.96 -0.10202
5.97 -0.156259
5.98 -0.212894
5.99 -0.270102
6 -0.326404
6.01 -0.380167
6.02 -0.430764
6.03 -0.477334
6.04 -0.519681
6.05 -0.558129
6.06 -0.59268
6.07 -0.624483
6.08 -0.654032
6.09 -0.68241
6.1 -0.710385
6.11 -0.738723
6.12 -0.767841
6.13 -0.798142
6.14 -0.82941
6.15 -0.861385
6.16 -0.893389
6.17 -0.924669
6.18 -0.95402
6.19 -0.980728
6.2 -1.00342
6.21 -1.02155
6.22 -1.03448
6.23 -1.04163
6.24 -1.04367
6.25 -1.04022
6.26 -1.03283
6.27 -1.02221
6.28 -1.00981
6.29 -0.996972
6.3 -0.985156
6.31 -0.975284
6.32 -0.968388
6.33 -0.96448
6.34 -0.963221
6.35 -0.963483
6.36 -0.96338
6.37 -0.959797
6.38 -0.949776
6.39 -0.928824
6.4 -0.89222
6.41 -0.836496
6.42 -0.753857
6.43 -0.643683
6.44 -0.49833
6.45 -0.317354
6.46 -0.0985348
6.47 0.160745
6.48 0.455324
6.49 0.788154
6.5 1.1498
6.51 1.53696
6.52 1.94132
6.53 2.35417
6.54 2.76561
6.55 3.16612
6.56 3.54335
6.57 3.8883
6.58 4.19144
6.59 4.44073
6.6 4.63518
6.61 4.75912
6.62 4.81823
6.63 4.80541
6.64 4.72203
6.65 4.57418
6.66 4.35897
6.67 4.0915
6.68 3.77322
6.69 3.41755
6.7 3.03344
6.71 2.63104
6.72 2.22179
6.73 1.81598
6.74 1.42254
6.75 1.05057
6.76 0.707406
6.77 0.396505
6.78 0.12643
6.79 -0.106122
6.8 -0.295524
6.81 -0.445825
6.82 -0.558495
6.83 -0.63497
6.84 -0.682662
6.85 -0.701848
6.86 -0.701104
6.87 -0.683434
6.88 -0.654
6.89 -0.617235
6.9 -0.576373
6.91 -0.534803
6.92 -0.494823
6.93 -0.458005
6.94 -0.425301
6.95 -0.397424
6.96 -0.373851
6.97 -0.354926
6.98 -0.339512
6.99 -0.327333
7 -0.317781
7.01 -0.310359
7.02 -0.305126
7.03 -0.30184
7.04 -0.301059
7.05 -0.303121
7.06 -0.308671
7.07 -0.318727
7.08 -0.333477
7.09 -0.354428
7.1 -0.38122
7.11 -0.414536
7.12 -0.4542
7.13 -0.499471
7.14 -0.550168
7.15 -0.604504
7.16 -0.661501
7.17 -0.719286
7.18 -0.776253
7.19 -0.830406
7.2 -0.880544
7.21 -0.924347
7.22 -0.96148
7.23 -0.990612
7.24 -1.0114
7.25 -1.02433
7.26 -1.02896
7.27 -1.02723
7.28 -1.0196
7.29 -1.00803
7.3 -0.993984
7.31 -0.979151
7.32 -0.964997
7.33 -0.953099
7.34 -0.944116
7.35 -0.938792
7.36 -0.937133
7.37 -0.938495
7.38 -0.942113
7.39 -0.946247
7.4 -0.948959
7.41 -0.947998
7.42 -0.941032
7.43 -0.924911
7.44 -0.898416
7.45 -0.85737
7.46 -0.801903
7.47 -0.729617
7.48 -0.639966
7.49 -0.533953
7.5 -0.410344
7.51 -0.272948
7.52 -0.122277
7.53 0.0377217
7.54 0.203974
7.55 0.372603
7.56 0.539687
7.57 0.700299
7.58 0.851212
7.59 0.987909
7.6 1.10676
7.61 1.20608
7.62 1.28066
7.63 1.33226
7.64 1.35697
7.65 1.35658
7.66 1.33143
7.67 1.28155
7.68 1.21134
7.69 1.12027
7.7 1.01399
7.71 0.894474
7.72 0.765601
7.73 0.631126
7.74 0.494363
7.75 0.358858
7.76 0.228064
7.77 0.104641
7.78 -0.00900467
7.79 -0.109965
7.8 -0.198105
7.81 -0.269972
7.82 -0.326982
7.83 -0.367707
7.84 -0.392489
7.85 -0.40278
7.86 -0.397817
7.87 -0.380927
7.88 -0.35226
7.89 -0.314632
7.9 -0.269914
7.91 -0.220187
7.92 -0.168087
7.93 -0.115851
7.94 -0.065789
7.95 -0.0201888
7.96 0.0188139
7.97 0.0500004
7.98 0.0706697
7.99 0.0811838
8 0.0794836
8.01 0.0661249
8.02 0.0411299
8.03 0.00443114
8.04 -0.0418458
8.05 -0.0977962
8.06 -0.160528
8.07 -0.228771
8.08 -0.300307
8.09 -0.373085
8.1 -0.444974
8.11 -0.514324
8.12 -0.579133
8.13 -0.638361
8.14 -0.691099
8.15 -0.736388
8.16 -0.774951
8.17 -0.806046
8.18 -0.831352
8.19 -0.851391
8.2 -0.86753
8.21 -0.881192
8.22 -0.893549
8.23 -0.905884
8.24 -0.919118
8.25 -0.933717
8.26 -0.949723
8.27 -0.966649
8.28 -0.983406
8.29 -0.998081
8.3 -1.00871
8.31 -1.01234
8.32 -1.0057
8.33 -0.986433
8.34 -0.949052
8.35 -0.892977
8.36 -0.81285
8.37 -0.707935
8.38 -0.576543
8.39 -0.41624
8.4 -0.230352
8.41 -0.0161338
8.42 0.220332
8.43 0.477376
8.44 0.749956
8.45 1.03227
8.46 1.31859
8.47 1.60201
8.48 1.87495
8.49 2.13085
8.5 2.3633
8.51 2.56387
8.52 2.731
8.53 2.85412
8.54 2.93549
8.55 2.96984
8.56 2.95666
8.57 2.8993
8.58 2.79413
8.59 2.65074
8.6 2.46874
8.61 2.25637
8.62 2.01908
8.63 1.76265
8.64 1.49531
8.65 1.22284
8.66 0.952432
8.67 0.690054
8.68 0.441461
8.69 0.209916
8.7 0.00178052
8.71 -0.183707
8.72 -0.342102
8.73 -0.474775
8.74 -0.582011
8.75 -0.663724
8.76 -0.724537
8.77 -0.763956
8.78 -0.787755
8.79 -0.797893
8.8 -0.79806
8.81 -0.79178
8.82 -0.781647
8.83 -0.770736
8.84 -0.761269
8.85 -0.754995
8.86 -0.753108
8.87 -0.756719
8.88 -0.765482
8.89 -0.780059
8.9 -0.799181
8.91 -0.822407
8.92 -0.848632
8.93 -0.876677
8.94 -0.905502
8.95 -0.933987
8.96 -0.961125
8.97 -0.986216
8.98 -1.00874
8.99 -1.02816
9 -1.04474
9.01 -1.0581
9.02 -1.06894
9.03 -1.07745
9.04 -1.08414
9.05 -1.08955
9.06 -1.09403
9.07 -1.09803
9.08 -1.10169
9.09 -1.10507
9.1 -1.10802
9.11 -1.1101
9.12 -1.1109
9.13 -1.1094
9.14 -1.10502
9.15 -1.09663
9.16 -1.08321
9.17 -1.06422
9.18 -1.03797
9.19 -1.00485
9.2 -0.963563
9.21 -0.914534
9.22 -0.857911
9.23 -0.793823
9.24 -0.723884
9.25 -0.648501
9.26 -0.569887
9.27 -0.489503
9.28 -0.409464
9.29 -0.331587
9.3 -0.258516
9.31 -0.191473
9.32 -0.133076
9.33 -0.0843552
9.34 -0.0464749
9.35 -0.0210348
9.36 -0.00702168
9.37 -0.00620864
9.38 -0.0163811
9.39 -0.0374143
9.4 -0.0677905
9.41 -0.105421
9.42 -0.149095
9.43 -0.196019
9.44 -0.244436
9.45 -0.292108
9.46 -0.337278
9.47 -0.377956
9.48 -0.413438
9.49 -0.441834
9.5 -0.463521
9.51 -0.477911
9.52 -0.485367
9.53 -0.486929
9.54 -0.48293
9.55 -0.475312
9.56 -0.465047
9.57 -0.45383
9.58 -0.442985
9.59 -0.433999
9.6 -0.427688
9.61 -0.425461
9.62 -0.427387
9.63 -0.434038
9.64 -0.445374
9.65 -0.46084
9.66 -0.4804
9.67 -0.502831
9.68 -0.527677
9.69 -0.553923
9.7 -0.580855
9.71 -0.607774
9.72 -0.634225
9.73 -0.659778
9.74 -0.684432
9.75 -0.708185
9.76 -0.73126
9.77 -0.753956
9.78 -0.776538
9.79 -0.799194
9.8 -0.821915
9.81 -0.844365
9.82 -0.865895
9.83 -0.885154
9.84 -0.900894
9.85 -0.910129
9.86 -0.911002
9.87 -0.899917
9.88 -0.87319
9.89 -0.828557
9.9 -0.759391
9.91 -0.665752
9.92 -0.541372
9.93 -0.38564
9.94 -0.196872
9.95 0.027955
9.96 0.284567
9.97 0.576371
9.98 0.896105
9.99 1.24181
10 1.60762
10.01 1.98649
10.02 2.37179
10.03 2.75497
10.04 3.12704
10.05 3.47976
10.06 3.80526
10.07 4.09296
10.08 4.34058
10.09 4.53498
10.1 4.67816
10.11 4.76341
10.12 4.78919
10.13 4.75945
10.14 4.66859
10.15 4.52831
10.16 4.33737
10.17 4.10544
10.18 3.83899
10.19 3.54436
10.2 3.23203
10.21 2.90821
10.22 2.58225
10.23 2.26111
10.24 1.95197
10.25 1.65914
10.26 1.39006
10.27 1.14462
10.28 0.92787
10.29 0.73883
10.3 0.577236
10.31 0.443421
10.32 0.332308
10.33 0.244343
10.34 0.173265
10.35 0.116759
10.36 0.0707596
10.37 0.0313326
10.38 -0.00443818
10.39 -0.039862
10.4 -0.0773793
10.41 -0.1188
10.42 -0.165294
10.43 -0.217945
10.44 -0.276166
10.45 -0.340409
10.46 -0.409095
10.47 -0.481419
10.48 -0.555863
10.49 -0.630912
10.5 -0.704846
10.51 -0.776353
10.52 -0.843672
10.53 -0.905757
10.54 -0.961634
10.55 -1.00997
10.56 -1.05108
10.57 -1.08343
10.58 -1.10798
10.59 -1.12427
10.6 -1.13258
10.61 -1.13378
10.62 -1.12747
10.63 -1.11525
10.64 -1.09705
10.65 -1.07396
10.66 -1.04663
10.67 -1.01558
10.68 -0.981852
10.69 -0.945801
10.7 -0.908405
10.71 -0.870219
10.72 -0.831965
10.73 -0.794225
10.74 -0.75779
10.75 -0.723052
10.76 -0.690804
10.77 -0.661446
10.78 -0.635426
10.79 -0.613454
10.8 -0.595414
10.81 -0.58227
10.82 -0.573643
10.83 -0.569984
10.84 -0.571361
10.85 -0.577419
10.86 -0.588693
10.87 -0.60428
10.88 -0.624438
10.89 -0.64852
10.9 -0.67614
10.91 -0.707006
10.92 -0.740269
10.93 -0.775664
10.94 -0.8123
10.95 -0.849626
10.96 -0.886905
10.97 -0.923523
10.98 -0.95861
10.99 -0.991761
11 -1.02212
11.01 -1.04932
11.02 -1.07295
11.03 -1.09241
11.04 -1.10801
11.05 -1.11909
11.06 -1.12634
11.07 -1.12977
11.08 -1.12987
11.09 -1.12739
11.1 -1.12276
11.11 -1.11702
11.12 -1.11085
11.13 -1.10506
11.14 -1.10026
11.15 -1.09709
11.16 -1.09561
11.17 -1.09607
11.18 -1.09787
11.19 -1.10039
11.2 -1.10244
11.21 -1.10269
11.22 -1.09875
11.23 -1.08915
11.24 -1.07072
11.25 -1.04137
11.26 -0.998753
11.27 -0.939242
11.28 -0.86275
11.29 -0.764606
11.3 -0.646202
11.31 -0.505602
11.32 -0.342941
11.33 -0.160577
11.34 0.0422063
11.35 0.259992
11.36 0.491066
11.37 0.730183
11.38 0.97286
11.39 1.21345
11.4 1.44714
11.41 1.66664
11.42 1.8682
11.43 2.04572
11.44 2.19425
11.45 2.31236
11.46 2.39243
11.47 2.43802
11.48 2.44413
11.49 2.41362
11.5 2.34797
11.51 2.24755
11.52 2.11941
11.53 1.96382
11.54 1.78894
11.55 1.5985
11.56 1.39827
11.57 1.1937
11.58 0.989966
11.59 0.791351
11.6 0.602552
11.61 0.426391
11.62 0.265091
11.63 0.121482
11.64 -0.00575798
11.65 -0.114123
11.66 -0.206723
11.67 -0.283903
11.68 -0.347721
11.69 -0.401129
11.7 -0.445433
11.71 -0.484265
11.72 -0.519331
11.73 -0.553034
11.74 -0.586959
11.75 -0.622528
11.76 -0.660248
11.77 -0.700715
11.78 -0.74331
11.79 -0.787433
11.8 -0.831804
11.81 -0.875044
11.82 -0.914965
11.83 -0.950196
11.84 -0.978168
11.85 -0.997327
11.86 -1.00609
11.87 -1.00202
11.88 -0.985474
11.89 -0.953522
11.9 -0.907563
11.91 -0.846639
11.92 -0.771106
11.93 -0.682676
11.94 -0.580814
11.95 -0.468855
11.96 -0.347412
11.97 -0.219228
11.98 -0.086431
11.99 0.0486109
12 0.183373
12.01 0.315037
12.02 0.441488
12.03 0.560109
12.04 0.668456
12.05 0.765443
12.06 0.847424
12.07 0.91513
12.08 0.965709
12.09 0.999444
12.1 1.01613
12.11 1.01467
12.12 0.997591
12.13 0.963463
12.14 0.915649
12.15 0.854853
12.16 0.783132
12.17 0.703189
12.18 0.616466
12.19 0.52618
12.2 0.434263
12.21 0.343135
12.22 0.254645
12.23 0.170919
12.24 0.0926777
12.25 0.0218737
12.26 -0.0418159
12.27 -0.097811
12.28 -0.146385
12.29 -0.188651
12.3 -0.224815
12.31 -0.256913
12.32 -0.285858
12.33 -0.313345
12.34 -0.340671
12.35 -0.369215
12.36 -0.399756
12.37 -0.433358
12.38 -0.469955
12.39 -0.509617
