# xPDFsuite Configuration #
[PDF]
wavelength = 0.1432
dataformat = twotheta
inputfile = 1_1Pt_CeO2_cycle-00004.chi
backgroundfile = background-00000.chi
mode = xray
bgscale = 1.07
composition = CeO2
outputtype = gr
qmaxinst = 28.9
qmin = 0.4
qmax = 27.9
rmax = 50.0
rmin = 0.0
rstep = 0.01
rpoly = 1.9824

[Misc]
inputdir = G:/SankarDec16/1Pt_2/Chi
savedir = D:/DATA/APS_CeO2/1Pt
backgroundfilefull = G:/SankarDec16/1Pt_2/Chi/background-00000.chi

#### start data
#S 1
#L r($\AA$)  G($\AA^{-2}$)
0 0
0.01 -0.00822434
0.02 -0.0158297
0.03 -0.0221788
0.04 -0.0267915
0.05 -0.0294003
0.06 -0.0295754
0.07 -0.0276023
0.08 -0.0233421
0.09 -0.0173402
0.1 -0.00997367
0.11 -0.00182016
0.12 0.00648955
0.13 0.0142484
0.14 0.0209541
0.15 0.0259921
0.16 0.0290018
0.17 0.0298379
0.18 0.0282057
0.19 0.0245245
0.2 0.0188084
0.21 0.0116932
0.22 0.00364835
0.23 -0.00467746
0.24 -0.0126892
0.25 -0.0196245
0.26 -0.0251203
0.27 -0.0286142
0.28 -0.0298809
0.29 -0.0289048
0.3 -0.0255398
0.31 -0.0203198
0.32 -0.0134114
0.33 -0.005512
0.34 0.00283887
0.35 0.0109508
0.36 0.0182923
0.37 0.0240811
0.38 0.0281104
0.39 0.0298957
0.4 0.0293586
0.41 0.0266134
0.42 0.0216705
0.43 0.0151537
0.44 0.00737451
0.45 -0.000940031
0.46 -0.00920528
0.47 -0.0167208
0.48 -0.0230438
0.49 -0.0274087
0.5 -0.0297747
0.51 -0.0297588
0.52 -0.0274329
0.53 -0.0230374
0.54 -0.0167388
0.55 -0.00922248
0.56 -0.000931006
0.57 0.00741245
0.58 0.0152055
0.59 0.0217698
0.6 0.0267728
0.61 0.0295011
0.62 0.0300829
0.63 0.0282551
0.64 0.0242378
0.65 0.0183864
0.66 0.0110176
0.67 0.00284644
0.68 -0.00557332
0.69 -0.0135556
0.7 -0.0205085
0.71 -0.025807
0.72 -0.0292452
0.73 -0.0301952
0.74 -0.0289491
0.75 -0.0253763
0.76 -0.0198357
0.77 -0.0127816
0.78 -0.00466658
0.79 0.00379794
0.8 0.0119731
0.81 0.0192418
0.82 0.0250511
0.83 0.0288588
0.84 0.0305956
0.85 0.0297492
0.86 0.0267616
0.87 0.0216404
0.88 0.0148653
0.89 0.00696627
0.9 -0.001493
0.91 -0.00984108
0.92 -0.017391
0.93 -0.0236284
0.94 -0.0280727
0.95 -0.0303
0.96 -0.0303847
0.97 -0.0279714
0.98 -0.0236306
0.99 -0.0175207
1 -0.010224
1.01 -0.00232117
1.02 0.00553005
1.03 0.0127436
1.04 0.0186145
1.05 0.0227737
1.06 0.0248509
1.07 0.0245829
1.08 0.0222111
1.09 0.0175938
1.1 0.0114336
1.11 0.00408213
1.12 -0.00375707
1.13 -0.0114425
1.14 -0.0181741
1.15 -0.0234706
1.16 -0.0265509
1.17 -0.0272017
1.18 -0.0251353
1.19 -0.0202171
1.2 -0.0128792
1.21 -0.00311772
1.22 0.00817302
1.23 0.0204813
1.24 0.0329521
1.25 0.0448408
1.26 0.0551839
1.27 0.0635013
1.28 0.0688707
1.29 0.0711078
1.3 0.0698863
1.31 0.0650339
1.32 0.0570573
1.33 0.0458272
1.34 0.0323561
1.35 0.0170747
1.36 0.000845946
1.37 -0.0155705
1.38 -0.0313111
1.39 -0.045793
1.4 -0.0581969
1.41 -0.068232
1.42 -0.0755454
1.43 -0.0798938
1.44 -0.0816066
1.45 -0.0804486
1.46 -0.0771697
1.47 -0.0719736
1.48 -0.065432
1.49 -0.0580523
1.5 -0.0502867
1.51 -0.0425786
1.52 -0.0352927
1.53 -0.0286317
1.54 -0.0227301
1.55 -0.0176352
1.56 -0.0131981
1.57 -0.00935976
1.58 -0.00583517
1.59 -0.00244447
1.6 0.00103089
1.61 0.0047315
1.62 0.00878447
1.63 0.0131512
1.64 0.0177857
1.65 0.0224852
1.66 0.0270149
1.67 0.0310279
1.68 0.0342737
1.69 0.0362285
1.7 0.0367812
1.71 0.0355535
1.72 0.0324302
1.73 0.0274437
1.74 0.0204763
1.75 0.0119648
1.76 0.00202009
1.77 -0.00881763
1.78 -0.0201368
1.79 -0.0314104
1.8 -0.0422094
1.81 -0.0519453
1.82 -0.0604214
1.83 -0.0672686
1.84 -0.0724028
1.85 -0.075908
1.86 -0.0777829
1.87 -0.0784987
1.88 -0.0782961
1.89 -0.0777154
1.9 -0.0771883
1.91 -0.0772159
1.92 -0.0780909
1.93 -0.080292
1.94 -0.083774
1.95 -0.0886598
1.96 -0.0947309
1.97 -0.101641
1.98 -0.108945
1.99 -0.116038
2 -0.122186
2.01 -0.126755
2.02 -0.129066
2.03 -0.128357
2.04 -0.124489
2.05 -0.116514
2.06 -0.104869
2.07 -0.0892067
2.08 -0.0698434
2.09 -0.04725
2.1 -0.0216189
2.11 0.0061281
2.12 0.0356472
2.13 0.0661803
2.14 0.0972707
2.15 0.128496
2.16 0.159614
2.17 0.190501
2.18 0.221268
2.19 0.252127
2.2 0.283444
2.21 0.315571
2.22 0.349067
2.23 0.384085
2.24 0.421063
2.25 0.459845
2.26 0.500256
2.27 0.541776
2.28 0.583554
2.29 0.624332
2.3 0.66287
2.31 0.697362
2.32 0.726044
2.33 0.747541
2.34 0.759141
2.35 0.760722
2.36 0.749666
2.37 0.726313
2.38 0.690112
2.39 0.640894
2.4 0.58076
2.41 0.509491
2.42 0.430681
2.43 0.345978
2.44 0.25849
2.45 0.171006
2.46 0.0868927
2.47 0.00836388
2.48 -0.0611506
2.49 -0.120308
2.5 -0.167438
2.51 -0.20113
2.52 -0.222621
2.53 -0.230475
2.54 -0.227945
2.55 -0.215867
2.56 -0.197008
2.57 -0.174089
2.58 -0.149872
2.59 -0.127149
2.6 -0.108853
2.61 -0.0968671
2.62 -0.0929312
2.63 -0.0985459
2.64 -0.113088
2.65 -0.137727
2.66 -0.170005
2.67 -0.209099
2.68 -0.252627
2.69 -0.298247
2.7 -0.343334
2.71 -0.385634
2.72 -0.422387
2.73 -0.452146
2.74 -0.473466
2.75 -0.485174
2.76 -0.488159
2.77 -0.481574
2.78 -0.467995
2.79 -0.448443
2.8 -0.42534
2.81 -0.400979
2.82 -0.377957
2.83 -0.358249
2.84 -0.344404
2.85 -0.337504
2.86 -0.338634
2.87 -0.348503
2.88 -0.365945
2.89 -0.391168
2.9 -0.421526
2.91 -0.455566
2.92 -0.490744
2.93 -0.52482
2.94 -0.555
2.95 -0.579815
2.96 -0.596749
2.97 -0.605304
2.98 -0.604812
2.99 -0.595101
3 -0.577878
3.01 -0.553556
3.02 -0.525158
3.03 -0.494636
3.04 -0.464816
3.05 -0.438018
3.06 -0.41729
3.07 -0.403722
3.08 -0.399818
3.09 -0.405555
3.1 -0.421205
3.11 -0.446418
3.12 -0.478979
3.13 -0.517863
3.14 -0.559722
3.15 -0.602157
3.16 -0.642144
3.17 -0.67738
3.18 -0.704733
3.19 -0.723605
3.2 -0.731764
3.21 -0.729907
3.22 -0.718387
3.23 -0.698375
3.24 -0.67265
3.25 -0.643331
3.26 -0.61399
3.27 -0.587781
3.28 -0.567977
3.29 -0.556799
3.3 -0.557689
3.31 -0.570365
3.32 -0.596901
3.33 -0.63554
3.34 -0.685102
3.35 -0.743333
3.36 -0.806475
3.37 -0.871073
3.38 -0.932914
3.39 -0.987802
3.4 -1.03191
3.41 -1.06292
3.42 -1.0768
3.43 -1.07474
3.44 -1.05465
3.45 -1.01949
3.46 -0.971302
3.47 -0.913516
3.48 -0.851057
3.49 -0.788723
3.5 -0.731474
3.51 -0.684419
3.52 -0.651677
3.53 -0.635307
3.54 -0.638929
3.55 -0.659773
3.56 -0.698027
3.57 -0.748123
3.58 -0.804884
3.59 -0.860393
3.6 -0.907008
3.61 -0.932315
3.62 -0.929582
3.63 -0.886789
3.64 -0.795397
3.65 -0.650922
3.66 -0.441172
3.67 -0.171936
3.68 0.164943
3.69 0.560729
3.7 1.01107
3.71 1.50847
3.72 2.03773
3.73 2.58852
3.74 3.14234
3.75 3.68324
3.76 4.1933
3.77 4.65894
3.78 5.05764
3.79 5.38554
3.8 5.62165
3.81 5.76558
3.82 5.8112
3.83 5.75311
3.84 5.60428
3.85 5.35608
3.86 5.0317
3.87 4.63562
3.88 4.18422
3.89 3.69385
3.9 3.17803
3.91 2.65498
3.92 2.13956
3.93 1.64533
3.94 1.18385
3.95 0.767208
3.96 0.397123
3.97 0.0865085
3.98 -0.171432
3.99 -0.372688
4 -0.52176
4.01 -0.62553
4.02 -0.685963
4.03 -0.715611
4.04 -0.718469
4.05 -0.704782
4.06 -0.681058
4.07 -0.654047
4.08 -0.628942
4.09 -0.610765
4.1 -0.601242
4.11 -0.602483
4.12 -0.614363
4.13 -0.635457
4.14 -0.664642
4.15 -0.698423
4.16 -0.7343
4.17 -0.768907
4.18 -0.799448
4.19 -0.822831
4.2 -0.837892
4.21 -0.841493
4.22 -0.834418
4.23 -0.81551
4.24 -0.785448
4.25 -0.745577
4.26 -0.696213
4.27 -0.640043
4.28 -0.57786
4.29 -0.51181
4.3 -0.44317
4.31 -0.373169
4.32 -0.302782
4.33 -0.232654
4.34 -0.163084
4.35 -0.0942206
4.36 -0.025988
4.37 0.0417649
4.38 0.10911
4.39 0.176103
4.4 0.242498
4.41 0.307892
4.42 0.371593
4.43 0.432412
4.44 0.489526
4.45 0.54065
4.46 0.585065
4.47 0.620607
4.48 0.645828
4.49 0.660027
4.5 0.660753
4.51 0.649187
4.52 0.623502
4.53 0.585187
4.54 0.534766
4.55 0.473092
4.56 0.402843
4.57 0.324853
4.58 0.242426
4.59 0.157445
4.6 0.0724593
4.61 -0.0105492
4.62 -0.0891436
4.63 -0.162402
4.64 -0.228366
4.65 -0.28686
4.66 -0.337471
4.67 -0.379972
4.68 -0.415661
4.69 -0.444316
4.7 -0.467959
4.71 -0.487288
4.72 -0.503679
4.73 -0.518312
4.74 -0.532122
4.75 -0.545967
4.76 -0.560429
4.77 -0.575757
4.78 -0.591997
4.79 -0.608975
4.8 -0.626273
4.81 -0.643372
4.82 -0.659739
4.83 -0.674764
4.84 -0.687949
4.85 -0.699053
4.86 -0.7076
4.87 -0.713912
4.88 -0.717874
4.89 -0.720031
4.9 -0.720808
4.91 -0.720782
4.92 -0.720595
4.93 -0.720907
4.94 -0.722179
4.95 -0.724902
4.96 -0.729329
4.97 -0.735458
4.98 -0.743385
4.99 -0.752623
5 -0.762926
5.01 -0.773692
5.02 -0.784417
5.03 -0.794508
5.04 -0.803608
5.05 -0.811147
5.06 -0.817136
5.07 -0.821404
5.08 -0.824122
5.09 -0.825617
5.1 -0.826181
5.11 -0.82635
5.12 -0.82651
5.13 -0.826996
5.14 -0.827952
5.15 -0.829293
5.16 -0.830625
5.17 -0.831106
5.18 -0.829764
5.19 -0.825041
5.2 -0.815144
5.21 -0.798586
5.22 -0.772253
5.23 -0.735549
5.24 -0.685176
5.25 -0.620659
5.26 -0.540778
5.27 -0.444264
5.28 -0.333063
5.29 -0.205835
5.3 -0.0666019
5.31 0.0831463
5.32 0.239637
5.33 0.398953
5.34 0.556391
5.35 0.707741
5.36 0.847177
5.37 0.970813
5.38 1.07438
5.39 1.15275
5.4 1.20593
5.41 1.22739
5.42 1.22057
5.43 1.18314
5.44 1.11695
5.45 1.02553
5.46 0.909486
5.47 0.775867
5.48 0.627139
5.49 0.46964
5.5 0.307986
5.51 0.147489
5.52 -0.00780748
5.53 -0.1524
5.54 -0.284412
5.55 -0.400278
5.56 -0.498467
5.57 -0.579185
5.58 -0.64042
5.59 -0.6856
5.6 -0.714209
5.61 -0.72967
5.62 -0.733989
5.63 -0.729369
5.64 -0.71895
5.65 -0.704282
5.66 -0.687815
5.67 -0.670779
5.68 -0.654175
5.69 -0.638343
5.7 -0.623254
5.71 -0.60829
5.72 -0.592534
5.73 -0.574893
5.74 -0.55422
5.75 -0.529096
5.76 -0.499133
5.77 -0.462798
5.78 -0.420732
5.79 -0.37267
5.8 -0.319474
5.81 -0.262474
5.82 -0.203027
5.83 -0.143289
5.84 -0.0854788
5.85 -0.031789
5.86 0.0156476
5.87 0.0542464
5.88 0.0833783
5.89 0.0999672
5.9 0.104919
5.91 0.0969787
5.92 0.0766522
5.93 0.0453211
5.94 0.00310902
5.95 -0.0469363
5.96 -0.103793
5.97 -0.16472
5.98 -0.227761
5.99 -0.290744
6 -0.352022
6.01 -0.409597
6.02 -0.462854
6.03 -0.510755
6.04 -0.553095
6.05 -0.5903
6.06 -0.622315
6.07 -0.650583
6.08 -0.675632
6.09 -0.698818
6.1 -0.721087
6.11 -0.743415
6.12 -0.76644
6.13 -0.790784
6.14 -0.816404
6.15 -0.843236
6.16 -0.870765
6.17 -0.89832
6.18 -0.924915
6.19 -0.949779
6.2 -0.971715
6.21 -0.990103
6.22 -1.00432
6.23 -1.01378
6.24 -1.01896
6.25 -1.01952
6.26 -1.01673
6.27 -1.01119
6.28 -1.00413
6.29 -0.996685
6.3 -0.990072
6.31 -0.985028
6.32 -0.982316
6.33 -0.9818
6.34 -0.982977
6.35 -0.984536
6.36 -0.984645
6.37 -0.979991
6.38 -0.967827
6.39 -0.943671
6.4 -0.902984
6.41 -0.842533
6.42 -0.754725
6.43 -0.639263
6.44 -0.48879
6.45 -0.303155
6.46 -0.0804001
6.47 0.181783
6.48 0.478167
6.49 0.81137
6.5 1.17209
6.51 1.5569
6.52 1.95763
6.53 2.36578
6.54 2.77155
6.55 3.16584
6.56 3.53652
6.57 3.87498
6.58 4.17203
6.59 4.41599
6.6 4.60605
6.61 4.72698
6.62 4.78444
6.63 4.77153
6.64 4.68964
6.65 4.54469
6.66 4.33381
6.67 4.07172
6.68 3.75972
6.69 3.41084
6.7 3.03371
6.71 2.63811
6.72 2.23521
6.73 1.83489
6.74 1.44592
6.75 1.07716
6.76 0.735813
6.77 0.425371
6.78 0.154253
6.79 -0.0805529
6.8 -0.27341
6.81 -0.428055
6.82 -0.545732
6.83 -0.627605
6.84 -0.680785
6.85 -0.705251
6.86 -0.709353
6.87 -0.695843
6.88 -0.669704
6.89 -0.635306
6.9 -0.595691
6.91 -0.554392
6.92 -0.513636
6.93 -0.475174
6.94 -0.440085
6.95 -0.409232
6.96 -0.382332
6.97 -0.359899
6.98 -0.34102
6.99 -0.3256
7 -0.313203
7.01 -0.303425
7.02 -0.296491
7.03 -0.292116
7.04 -0.290945
7.05 -0.293227
7.06 -0.299548
7.07 -0.310843
7.08 -0.327137
7.09 -0.349834
7.1 -0.378402
7.11 -0.413392
7.12 -0.454494
7.13 -0.500883
7.14 -0.55225
7.15 -0.606823
7.16 -0.663561
7.17 -0.720655
7.18 -0.77655
7.19 -0.829334
7.2 -0.877942
7.21 -0.920181
7.22 -0.955866
7.23 -0.983813
7.24 -1.00382
7.25 -1.01647
7.26 -1.02146
7.27 -1.02072
7.28 -1.01476
7.29 -1.00548
7.3 -0.994261
7.31 -0.982684
7.32 -0.972017
7.33 -0.963656
7.34 -0.958034
7.35 -0.955663
7.36 -0.956309
7.37 -0.959185
7.38 -0.963225
7.39 -0.966723
7.4 -0.967534
7.41 -0.963499
7.42 -0.952342
7.43 -0.931004
7.44 -0.89857
7.45 -0.851041
7.46 -0.78894
7.47 -0.710191
7.48 -0.614642
7.49 -0.503582
7.5 -0.376259
7.51 -0.236563
7.52 -0.0853999
7.53 0.0732914
7.54 0.2364
7.55 0.400036
7.56 0.560643
7.57 0.713369
7.58 0.855541
7.59 0.982999
7.6 1.09264
7.61 1.18323
7.62 1.25018
7.63 1.29552
7.64 1.31591
7.65 1.31331
7.66 1.28822
7.67 1.24087
7.68 1.1753
7.69 1.09107
7.7 0.993229
7.71 0.88341
7.72 0.764921
7.73 0.640952
7.74 0.514159
7.75 0.387614
7.76 0.264105
7.77 0.145965
7.78 0.0352909
7.79 -0.0653428
7.8 -0.155546
7.81 -0.232123
7.82 -0.295875
7.83 -0.345148
7.84 -0.379725
7.85 -0.400463
7.86 -0.405978
7.87 -0.399005
7.88 -0.379023
7.89 -0.348411
7.9 -0.308653
7.91 -0.261411
7.92 -0.209479
7.93 -0.154751
7.94 -0.100073
7.95 -0.047879
7.96 -0.000799379
7.97 0.0393879
7.98 0.0694453
7.99 0.0891243
8 0.0957587
8.01 0.0894472
8.02 0.0698297
8.03 0.0364299
8.04 -0.0085308
8.05 -0.0654709
8.06 -0.131052
8.07 -0.203885
8.08 -0.281329
8.09 -0.360849
8.1 -0.439855
8.11 -0.516174
8.12 -0.5873
8.13 -0.651822
8.14 -0.708535
8.15 -0.756185
8.16 -0.795608
8.17 -0.825884
8.18 -0.849091
8.19 -0.865932
8.2 -0.87817
8.21 -0.887643
8.22 -0.895961
8.23 -0.904765
8.24 -0.915387
8.25 -0.928489
8.26 -0.944249
8.27 -0.96227
8.28 -0.981219
8.29 -0.999102
8.3 -1.01348
8.31 -1.02105
8.32 -1.01805
8.33 -1.00171
8.34 -0.965958
8.35 -0.910059
8.36 -0.828211
8.37 -0.71969
8.38 -0.582831
8.39 -0.415303
8.4 -0.220939
8.41 0.00267396
8.42 0.248742
8.43 0.514972
8.44 0.795588
8.45 1.08426
8.46 1.37437
8.47 1.65892
8.48 1.92968
8.49 2.1802
8.5 2.40412
8.51 2.59318
8.52 2.74659
8.53 2.85416
8.54 2.9192
8.55 2.93727
8.56 2.90884
8.57 2.83803
8.58 2.7224
8.59 2.57176
8.6 2.38664
8.61 2.17527
8.62 1.94313
8.63 1.696
8.64 1.44123
8.65 1.18437
8.66 0.931348
8.67 0.687316
8.68 0.456896
8.69 0.242427
8.7 0.0490203
8.71 -0.124554
8.72 -0.274872
8.73 -0.403473
8.74 -0.510813
8.75 -0.596956
8.76 -0.665734
8.77 -0.716585
8.78 -0.754065
8.79 -0.779429
8.8 -0.795294
8.81 -0.804263
8.82 -0.807801
8.83 -0.808423
8.84 -0.80741
8.85 -0.80627
8.86 -0.805989
8.87 -0.80751
8.88 -0.811137
8.89 -0.817585
8.9 -0.826631
8.91 -0.838448
8.92 -0.852857
8.93 -0.869474
8.94 -0.888217
8.95 -0.908431
8.96 -0.929868
8.97 -0.951986
8.98 -0.974373
8.99 -0.996554
9 -1.01817
9.01 -1.03867
9.02 -1.05784
9.03 -1.07524
9.04 -1.09058
9.05 -1.10375
9.06 -1.11422
9.07 -1.12221
9.08 -1.12724
9.09 -1.1294
9.1 -1.12859
9.11 -1.12452
9.12 -1.11744
9.13 -1.10672
9.14 -1.09269
9.15 -1.0749
9.16 -1.05314
9.17 -1.02745
9.18 -0.997012
9.19 -0.962254
9.2 -0.922428
9.21 -0.87775
9.22 -0.82818
9.23 -0.773546
9.24 -0.714662
9.25 -0.65138
9.26 -0.584963
9.27 -0.516071
9.28 -0.44595
9.29 -0.375872
9.3 -0.307548
9.31 -0.242258
9.32 -0.182077
9.33 -0.128346
9.34 -0.082491
9.35 -0.0464852
9.36 -0.0202107
9.37 -0.00605975
9.38 -0.00283006
9.39 -0.0112459
9.4 -0.03069
9.41 -0.0596232
9.42 -0.0977869
9.43 -0.142296
9.44 -0.191933
9.45 -0.244117
9.46 -0.296808
9.47 -0.347628
9.48 -0.394965
9.49 -0.436315
9.5 -0.471051
9.51 -0.497764
9.52 -0.515953
9.53 -0.526143
9.54 -0.527787
9.55 -0.522932
9.56 -0.512084
9.57 -0.497293
9.58 -0.480182
9.59 -0.462646
9.6 -0.446354
9.61 -0.433326
9.62 -0.424536
9.63 -0.42131
9.64 -0.424369
9.65 -0.433577
9.66 -0.449642
9.67 -0.471162
9.68 -0.498011
9.69 -0.528765
9.7 -0.562349
9.71 -0.597588
9.72 -0.633233
9.73 -0.66818
9.74 -0.701653
9.75 -0.732934
9.76 -0.761596
9.77 -0.787641
9.78 -0.810702
9.79 -0.831276
9.8 -0.84915
9.81 -0.864495
9.82 -0.8771
9.83 -0.886184
9.84 -0.891275
9.85 -0.89014
9.86 -0.881614
9.87 -0.862807
9.88 -0.830621
9.89 -0.782999
9.9 -0.71389
9.91 -0.622945
9.92 -0.504037
9.93 -0.355987
9.94 -0.176636
9.95 0.0376339
9.96 0.283309
9.97 0.564533
9.98 0.874682
9.99 1.21244
10 1.57245
10.01 1.94782
10.02 2.3324
10.03 2.7172
10.04 3.09331
10.05 3.45191
10.06 3.78471
10.07 4.08052
10.08 4.33644
10.09 4.53866
10.1 4.68868
10.11 4.77929
10.12 4.8086
10.13 4.78053
10.14 4.6892
10.15 4.54677
10.16 4.3521
10.17 4.11539
10.18 3.84358
10.19 3.5436
10.2 3.22638
10.21 2.89875
10.22 2.57032
10.23 2.2484
10.24 1.94025
10.25 1.65005
10.26 1.38521
10.27 1.14504
10.28 0.934262
10.29 0.751249
10.3 0.595199
10.31 0.465768
10.32 0.357544
10.33 0.270283
10.34 0.197738
10.35 0.137358
10.36 0.0851938
10.37 0.0377155
10.38 -0.00772865
10.39 -0.0536446
10.4 -0.101847
10.41 -0.153333
10.42 -0.208563
10.43 -0.267739
10.44 -0.329978
10.45 -0.394846
10.46 -0.46095
10.47 -0.527245
10.48 -0.592457
10.49 -0.655677
10.5 -0.715563
10.51 -0.771887
10.52 -0.823695
10.53 -0.870987
10.54 -0.913684
10.55 -0.951558
10.56 -0.985298
10.57 -1.01448
10.58 -1.03985
10.59 -1.06128
10.6 -1.07879
10.61 -1.09257
10.62 -1.10184
10.63 -1.10689
10.64 -1.10679
10.65 -1.1014
10.66 -1.09032
10.67 -1.07279
10.68 -1.04935
10.69 -1.01906
10.7 -0.983026
10.71 -0.941361
10.72 -0.894951
10.73 -0.84509
10.74 -0.79283
10.75 -0.739976
10.76 -0.688172
10.77 -0.639167
10.78 -0.594543
10.79 -0.556381
10.8 -0.525233
10.81 -0.503477
10.82 -0.490757
10.83 -0.488108
10.84 -0.49557
10.85 -0.512158
10.86 -0.538323
10.87 -0.571721
10.88 -0.611889
10.89 -0.65679
10.9 -0.704888
10.91 -0.754502
10.92 -0.803962
10.93 -0.851542
10.94 -0.89612
10.95 -0.936424
10.96 -0.971541
10.97 -1.00132
10.98 -1.02474
10.99 -1.04272
11 -1.05489
11.01 -1.06217
11.02 -1.06524
11.03 -1.06474
11.04 -1.06192
11.05 -1.05745
11.06 -1.05248
11.07 -1.04782
11.08 -1.04431
11.09 -1.04247
11.1 -1.04312
11.11 -1.04622
11.12 -1.05224
11.13 -1.06093
11.14 -1.07207
11.15 -1.0853
11.16 -1.09977
11.17 -1.11471
11.18 -1.12893
11.19 -1.14112
11.2 -1.14965
11.21 -1.15324
11.22 -1.1491
11.23 -1.13646
11.24 -1.11223
11.25 -1.07508
11.26 -1.02327
11.27 -0.953868
11.28 -0.867524
11.29 -0.760323
11.3 -0.634156
11.31 -0.487635
11.32 -0.321259
11.33 -0.137397
11.34 0.0643397
11.35 0.279029
11.36 0.505
11.37 0.737557
11.38 0.972676
11.39 1.20524
11.4 1.43101
11.41 1.6433
11.42 1.83873
11.43 2.01167
11.44 2.15747
11.45 2.27474
11.46 2.35616
11.47 2.40492
11.48 2.41602
11.49 2.39191
11.5 2.33372
11.51 2.24142
11.52 2.12159
11.53 1.97404
11.54 1.80656
11.55 1.62245
11.56 1.42721
11.57 1.22617
11.58 1.02417
11.59 0.825711
11.6 0.635365
11.61 0.456201
11.62 0.29064
11.63 0.141713
11.64 0.00848566
11.65 -0.106294
11.66 -0.205365
11.67 -0.288788
11.68 -0.358319
11.69 -0.416735
11.7 -0.465019
11.71 -0.506816
11.72 -0.54362
11.73 -0.577878
11.74 -0.611196
11.75 -0.644992
11.76 -0.680004
11.77 -0.716838
11.78 -0.755158
11.79 -0.794507
11.8 -0.833824
11.81 -0.871937
11.82 -0.906883
11.83 -0.937459
11.84 -0.96132
11.85 -0.97705
11.86 -0.983189
11.87 -0.977479
11.88 -0.960218
11.89 -0.928675
11.9 -0.884103
11.91 -0.825564
11.92 -0.753321
11.93 -0.668911
11.94 -0.571722
11.95 -0.464814
11.96 -0.34863
11.97 -0.225662
11.98 -0.0978244
11.99 0.0327862
12 0.163776
12.01 0.292633
12.02 0.417269
12.03 0.535229
12.04 0.644124
12.05 0.742777
12.06 0.827626
12.07 0.899117
12.08 0.954337
12.09 0.993289
12.1 1.01554
12.11 1.01971
12.12 1.00809
12.13 0.978906
12.14 0.93535
12.15 0.87788
12.16 0.808377
12.17 0.729524
12.18 0.64255
12.19 0.550878
12.2 0.456383
12.21 0.361694
12.22 0.268836
12.23 0.180121
12.24 0.0965607
12.25 0.0203348
12.26 -0.0486172
12.27 -0.109484
12.28 -0.162316
12.29 -0.208125
12.3 -0.246876
12.31 -0.280678
12.32 -0.310317
12.33 -0.337584
12.34 -0.363846
12.35 -0.390545
12.36 -0.418669
12.37 -0.449359
12.38 -0.482761
12.39 -0.519069
